##TITLE=No Description
##DATA TYPE=INFRARED SPECTRUM
##XUNITS=1/CM
##YUNITS=%T
399.848486  	99.872651 
405.560607  	96.203562 
411.272728  	97.249700 
416.984850  	99.356267 
422.696971  	96.328083 
428.409092  	98.064004 
434.121213  	97.847862 
439.833335  	97.000419 
445.545456  	98.080237 
451.257577  	95.939068 
456.969698  	93.461420 
462.681819  	95.115576 
468.393941  	96.675190 
474.106062  	97.409071 
479.818183  	97.729941 
485.530304  	97.568345 
491.242426  	98.031066 
496.954547  	98.252746 
502.666668  	97.920289 
508.378789  	98.047836 
514.090911  	98.084894 
519.803032  	97.851996 
525.515153  	97.695093 
531.227274  	97.591923 
536.939395  	97.869285 
542.651517  	98.161460 
548.363638  	98.085463 
554.075759  	98.212491 
559.787880  	98.271371 
565.500002  	98.034448 
571.212123  	98.091824 
576.924244  	98.173164 
582.636365  	98.093802 
588.348487  	98.299592 
594.060608  	98.371904 
599.772729  	98.117104 
605.484850  	98.130936 
611.196971  	98.272670 
616.909093  	98.189503 
622.621214  	98.241801 
628.333335  	98.403981 
634.045456  	98.297111 
639.757578  	98.198734 
645.469699  	98.205344 
651.181820  	98.072484 
656.893941  	98.060740 
662.606062  	98.099310 
668.318184  	98.035127 
674.030305  	98.130807 
679.742426  	98.154357 
685.454547  	98.097805 
691.166669  	98.136232 
696.878790  	98.138590 
702.590911  	98.192920 
708.303032  	98.134591 
714.015154  	97.989173 
719.727275  	98.056790 
725.439396  	97.969167 
731.151517  	97.962745 
736.863638  	98.284043 
742.575760  	98.329917 
748.287881  	98.424627 
754.000002  	98.533530 
759.712123  	98.425889 
765.424245  	98.541426 
771.136366  	98.315010 
776.848487  	98.221097 
782.560608  	98.462098 
788.272730  	97.738001 
793.984851  	97.781686 
799.696972  	97.494368 
805.409093  	94.286846 
811.121214  	94.014377 
816.833336  	96.904011 
822.545457  	97.524519 
828.257578  	98.103019 
833.969699  	95.823341 
839.681821  	90.446037 
845.393942  	93.016274 
851.106063  	98.683844 
856.818184  	97.851336 
862.530305  	97.621487 
868.242427  	99.009796 
873.954548  	97.949098 
879.666669  	98.264703 
885.378790  	98.939218 
891.090912  	97.312557 
896.803033  	95.453374 
902.515154  	95.241395 
908.227275  	97.774336 
913.939397  	99.062318 
919.651518  	97.927023 
925.363639  	98.691986 
931.075760  	98.758382 
936.787881  	97.112349 
942.500003  	97.762672 
948.212124  	97.861657 
953.924245  	97.252913 
959.636366  	98.047736 
965.348488  	94.557645 
971.060609  	88.510661 
976.772730  	89.890539 
982.484851  	96.455804 
988.196973  	96.901727 
993.909094  	90.654456 
999.621215  	89.552398 
1005.333336  	95.359375 
1011.045457  	97.824425 
1016.757579  	97.192407 
1022.469700  	97.931956 
1028.181821  	97.749074 
1033.893942  	97.438640 
1039.606064  	97.503169 
1045.318185  	96.826945 
1051.030306  	97.417947 
1056.742427  	97.866178 
1062.454548  	97.454317 
1068.166670  	97.956950 
1073.878791  	97.849777 
1079.590912  	97.645476 
1085.303033  	97.927157 
1091.015155  	97.563603 
1096.727276  	97.157367 
1102.439397  	96.468600 
1108.151518  	96.877574 
1113.863640  	98.176492 
1119.575761  	97.955961 
1125.287882  	98.089710 
1131.000003  	98.303915 
1136.712124  	97.727525 
1142.424246  	97.396724 
1148.136367  	95.634089 
1153.848488  	94.623271 
1159.560609  	93.877942 
1165.272731  	90.203606 
1170.984852  	91.454728 
1176.696973  	97.368319 
1182.409094  	98.087533 
1188.121215  	97.692116 
1193.833337  	98.701914 
1199.545458  	97.767216 
1205.257579  	98.116794 
1210.969700  	98.179466 
1216.681822  	96.795977 
1222.393943  	97.626677 
1228.106064  	97.954821 
1233.818185  	97.622176 
1239.530307  	98.317860 
1245.242428  	97.543244 
1250.954549  	96.797734 
1256.666670  	96.643850 
1262.378791  	96.804594 
1268.090913  	98.129440 
1273.803034  	97.734181 
1279.515155  	97.338611 
1285.227276  	98.025121 
1290.939398  	96.551574 
1296.651519  	96.050464 
1302.363640  	96.215676 
1308.075761  	95.719282 
1313.787883  	98.035256 
1319.500004  	97.632369 
1325.212125  	95.470931 
1330.924246  	97.189079 
1336.636367  	96.188353 
1342.348489  	96.082564 
1348.060610  	96.877597 
1353.772731  	88.910899 
1359.484852  	87.434361 
1365.196974  	90.329119 
1370.909095  	70.850188 
1376.621216  	60.732197 
1382.333337  	83.473711 
1388.045458  	97.884592 
1393.757580  	94.839486 
1399.469701  	96.531673 
1405.181822  	97.874110 
1410.893943  	95.760571 
1416.606065  	97.036570 
1422.318186  	97.202049 
1428.030307  	93.603717 
1433.742428  	90.959328 
1439.454550  	86.767236 
1445.166671  	79.718759 
1450.878792  	71.310529 
1456.590913  	67.727596 
1462.303034  	76.272832 
1468.015156  	82.263970 
1473.727277  	92.504565 
1479.439398  	96.445888 
1485.151519  	95.835107 
1490.863641  	98.105647 
1496.575762  	97.647538 
1502.287883  	97.358545 
1508.000004  	98.913470 
1513.712126  	97.637627 
1519.424247  	98.223309 
1525.136368  	98.767874 
1530.848489  	97.743101 
1536.560610  	98.765025 
1542.272732  	98.098068 
1547.984853  	97.709875 
1553.696974  	98.918141 
1559.409095  	97.563138 
1565.121217  	97.885142 
1570.833338  	98.710353 
1576.545459  	97.672610 
1582.257580  	98.214450 
1587.969701  	98.366522 
1593.681823  	97.743231 
1599.393944  	98.348503 
1605.106065  	98.013763 
1610.818186  	97.865705 
1616.530308  	98.471084 
1622.242429  	97.647552 
1627.954550  	98.013590 
1633.666671  	98.215703 
1639.378793  	97.432124 
1645.090914  	98.270230 
1650.803035  	97.984376 
1656.515156  	97.628407 
1662.227277  	98.518081 
1667.939399  	98.010208 
1673.651520  	98.024706 
1679.363641  	98.594638 
1685.075762  	97.847210 
1690.787884  	98.395756 
1696.500005  	98.639792 
1702.212126  	97.715616 
1707.924247  	98.520718 
1713.636369  	98.470329 
1719.348490  	97.996221 
1725.060611  	98.592363 
1730.772732  	98.287984 
1736.484853  	98.199859 
1742.196975  	98.660272 
1747.909096  	98.470555 
1753.621217  	98.733981 
1759.333338  	98.761331 
1765.045460  	98.697245 
1770.757581  	98.959311 
1776.469702  	98.667181 
1782.181823  	98.882461 
1787.893944  	99.147287 
1793.606066  	98.730652 
1799.318187  	99.016195 
1805.030308  	99.091600 
1810.742429  	98.878274 
1816.454551  	99.234388 
1822.166672  	98.973566 
1827.878793  	98.821043 
1833.590914  	99.207196 
1839.303036  	98.912146 
1845.015157  	99.099491 
1850.727278  	99.160789 
1856.439399  	98.896019 
1862.151520  	99.350709 
1867.863642  	99.051790 
1873.575763  	98.903217 
1879.287884  	99.438385 
1885.000005  	98.965580 
1890.712127  	99.065372 
1896.424248  	99.321157 
1902.136369  	98.846510 
1907.848490  	99.423577 
1913.560611  	99.317028 
1919.272733  	98.916079 
1924.984854  	99.614006 
1930.696975  	99.108602 
1936.409096  	99.282860 
1942.121218  	99.918696 
1947.833339  	98.990310 
1953.545460  	99.777981 
1959.257581  	99.682018 
1964.969703  	98.497744 
1970.681824  	100.047361 
1976.393945  	98.810389 
1982.106066  	98.623317 
1987.818187  	99.968108 
1993.530309  	98.652223 
1999.242430  	99.400768 
2004.954551  	99.824168 
2010.666672  	98.063776 
2016.378794  	99.412685 
2022.090915  	98.757543 
2027.803036  	97.748231 
2033.515157  	99.439479 
2039.227279  	98.298750 
2044.939400  	98.416294 
2050.651521  	98.932974 
2056.363642  	98.277086 
2062.075763  	99.111100 
2067.787885  	98.889338 
2073.500006  	98.375537 
2079.212127  	99.127546 
2084.924248  	98.709348 
2090.636370  	98.744594 
2096.348491  	99.241019 
2102.060612  	98.601656 
2107.772733  	98.933699 
2113.484854  	99.125847 
2119.196976  	98.728862 
2124.909097  	99.285534 
2130.621218  	99.084608 
2136.333339  	98.762840 
2142.045461  	99.477467 
2147.757582  	98.806859 
2153.469703  	99.052153 
2159.181824  	99.305927 
2164.893946  	98.155490 
2170.606067  	99.328277 
2176.318188  	99.025703 
2182.030309  	98.368207 
2187.742430  	99.057972 
2193.454552  	98.293951 
2199.166673  	98.533657 
2204.878794  	98.979769 
2210.590915  	98.193173 
2216.303037  	98.758974 
2222.015158  	98.777822 
2227.727279  	98.205267 
2233.439400  	98.752565 
2239.151522  	98.501931 
2244.863643  	98.311282 
2250.575764  	98.595136 
2256.287885  	98.396469 
2262.000006  	98.656641 
2267.712128  	98.713842 
2273.424249  	98.501031 
2279.136370  	98.776293 
2284.848491  	98.640983 
2290.560613  	98.518779 
2296.272734  	98.689449 
2301.984855  	98.526666 
2307.696976  	98.506320 
2313.409097  	98.571824 
2319.121219  	98.366415 
2324.833340  	98.333983 
2330.545461  	98.459104 
2336.257582  	98.590447 
2341.969704  	98.430445 
2347.681825  	98.178422 
2353.393946  	98.501663 
2359.106067  	98.799414 
2364.818189  	98.694928 
2370.530310  	98.927207 
2376.242431  	98.720914 
2381.954552  	98.504868 
2387.666673  	98.664034 
2393.378795  	98.478117 
2399.090916  	98.400874 
2404.803037  	98.552750 
2410.515158  	98.443861 
2416.227280  	98.502487 
2421.939401  	98.540803 
2427.651522  	98.390506 
2433.363643  	98.499994 
2439.075765  	98.515512 
2444.787886  	98.482919 
2450.500007  	98.549978 
2456.212128  	98.455222 
2461.924249  	98.544807 
2467.636371  	98.588219 
2473.348492  	98.422534 
2479.060613  	98.534439 
2484.772734  	98.512437 
2490.484856  	98.403016 
2496.196977  	98.576491 
2501.909098  	98.501098 
2507.621219  	98.417824 
2513.333340  	98.516790 
2519.045462  	98.380555 
2524.757583  	98.337699 
2530.469704  	98.323834 
2536.181825  	98.194940 
2541.893947  	98.261410 
2547.606068  	98.161379 
2553.318189  	97.988402 
2559.030310  	98.048533 
2564.742432  	97.941363 
2570.454553  	97.784956 
2576.166674  	97.627115 
2581.878795  	97.403349 
2587.590916  	97.550217 
2593.303038  	97.733565 
2599.015159  	97.676910 
2604.727280  	97.677405 
2610.439401  	97.534999 
2616.151523  	97.399268 
2621.863644  	97.497550 
2627.575765  	97.521002 
2633.287886  	97.572015 
2639.000007  	97.621903 
2644.712129  	97.511514 
2650.424250  	97.480075 
2656.136371  	97.410490 
2661.848492  	97.331899 
2667.560614  	97.439988 
2673.272735  	97.397437 
2678.984856  	97.334375 
2684.696977  	97.457506 
2690.409099  	97.403009 
2696.121220  	97.395283 
2701.833341  	97.402430 
2707.545462  	97.104196 
2713.257583  	96.820109 
2718.969705  	96.351242 
2724.681826  	96.120896 
2730.393947  	96.738393 
2736.106068  	97.010688 
2741.818190  	97.019949 
2747.530311  	97.418395 
2753.242432  	97.267173 
2758.954553  	97.156402 
2764.666675  	97.268269 
2770.378796  	96.842563 
2776.090917  	96.901333 
2781.803038  	96.667745 
2787.515159  	95.759997 
2793.227281  	95.669880 
2798.939402  	94.938955 
2804.651523  	93.915955 
2810.363644  	93.446503 
2816.075766  	91.594344 
2821.787887  	90.318114 
2827.500008  	86.439365 
2833.212129  	74.903749 
2838.924250  	68.321983 
2844.636372  	75.932142 
2850.348493  	85.346375 
2856.060614  	84.076894 
2861.772735  	74.334838 
2867.484857  	68.288832 
2873.196978  	70.280046 
2878.909099  	71.238774 
2884.621220  	71.413685 
2890.333342  	73.836720 
2896.045463  	70.150676 
2901.757584  	62.960992 
2907.469705  	56.875742 
2913.181826  	48.270907 
2918.893948  	45.494011 
2924.606069  	53.352738 
2930.318190  	65.367294 
2936.030311  	76.145708 
2941.742433  	70.583646 
2947.454554  	55.447738 
2953.166675  	56.108897 
2958.878796  	64.451133 
2964.590918  	69.924538 
2970.303039  	82.285679 
2976.015160  	91.264007 
2981.727281  	92.420613 
2987.439402  	95.282492 
2993.151524  	96.228568 
2998.863645  	95.827854 
3004.575766  	97.364622 
3010.287887  	96.911046 
3016.000009  	97.033724 
3021.712130  	97.917973 
3027.424251  	97.128296 
3033.136372  	97.679938 
3038.848493  	97.868340 
3044.560615  	97.226981 
3050.272736  	97.942978 
3055.984857  	97.601320 
3061.696978  	97.420027 
3067.409100  	98.028410 
3073.121221  	97.426280 
3078.833342  	97.702231 
3084.545463  	97.921683 
3090.257585  	97.380453 
3095.969706  	97.929310 
3101.681827  	97.662629 
3107.393948  	97.386896 
3113.106069  	97.956262 
3118.818191  	97.409290 
3124.530312  	97.502162 
3130.242433  	97.804985 
3135.954554  	97.203394 
3141.666676  	97.615720 
3147.378797  	97.545377 
3153.090918  	97.112441 
3158.803039  	97.645673 
3164.515161  	97.309957 
3170.227282  	97.251786 
3175.939403  	97.608355 
3181.651524  	97.038880 
3187.363645  	97.284235 
3193.075767  	97.353122 
3198.787888  	96.875004 
3204.500009  	97.313009 
3210.212130  	97.123154 
3215.924252  	97.020506 
3221.636373  	97.426810 
3227.348494  	96.987274 
3233.060615  	97.223717 
3238.772736  	97.408614 
3244.484858  	96.970142 
3250.196979  	97.399659 
3255.909100  	97.210417 
3261.621221  	96.943786 
3267.333343  	97.377876 
3273.045464  	96.966761 
3278.757585  	97.029933 
3284.469706  	97.297448 
3290.181828  	96.857835 
3295.893949  	97.177543 
3301.606070  	97.141583 
3307.318191  	96.851635 
3313.030312  	97.270066 
3318.742434  	96.966745 
3324.454555  	96.909938 
3330.166676  	97.188313 
3335.878797  	96.794695 
3341.590919  	97.036138 
3347.303040  	97.056195 
3353.015161  	96.748290 
3358.727282  	97.167808 
3364.439403  	96.920366 
3370.151525  	96.819563 
3375.863646  	97.197763 
3381.575767  	96.843612 
3387.287888  	97.045110 
3393.000010  	97.128325 
3398.712131  	96.732370 
3404.424252  	97.193575 
3410.136373  	97.017253 
3415.848495  	96.750788 
3421.560616  	97.204313 
3427.272737  	96.844619 
3432.984858  	96.933712 
3438.696979  	97.265910 
3444.409101  	96.843840 
3450.121222  	97.172172 
3455.833343  	97.217371 
3461.545464  	96.920036 
3467.257586  	97.350281 
3472.969707  	97.165534 
3478.681828  	97.126734 
3484.393949  	97.405826 
3490.106071  	97.074306 
3495.818192  	97.357539 
3501.530313  	97.399634 
3507.242434  	97.052030 
3512.954555  	97.483765 
3518.666677  	97.353996 
3524.378798  	97.265632 
3530.090919  	97.579812 
3535.803040  	97.296927 
3541.515162  	97.585206 
3547.227283  	97.724152 
3552.939404  	97.273593 
3558.651525  	97.808374 
3564.363646  	97.776712 
3570.075768  	97.401033 
3575.787889  	97.873731 
3581.500010  	97.707611 
3587.212131  	97.737954 
3592.924253  	97.964666 
3598.636374  	97.565535 
3604.348495  	97.957379 
3610.060616  	98.028041 
3615.772738  	97.600346 
3621.484859  	98.165189 
3627.196980  	98.057963 
3632.909101  	97.647190 
3638.621222  	97.961797 
3644.333344  	98.053805 
3650.045465  	98.063279 
3655.757586  	97.836551 
3661.469707  	97.855777 
3667.181829  	98.413747 
3672.893950  	97.909827 
3678.606071  	97.700793 
3684.318192  	98.309229 
3690.030314  	97.964023 
3695.742435  	97.757649 
3701.454556  	98.050145 
3707.166677  	97.826684 
3712.878798  	97.856775 
3718.590920  	97.915961 
3724.303041  	97.811606 
3730.015162  	98.016006 
3735.727283  	97.845499 
3741.439405  	98.034677 
3747.151526  	98.290794 
3752.863647  	97.682285 
3758.575768  	97.872764 
3764.287889  	97.930181 
3770.000011  	97.508160 
3775.712132  	97.811975 
3781.424253  	97.801209 
3787.136374  	97.510079 
3792.848496  	97.939106 
3798.560617  	97.939505 
3804.272738  	97.488465 
3809.984859  	97.940757 
3815.696981  	98.065822 
3821.409102  	97.539775 
3827.121223  	97.774943 
3832.833344  	98.010193 
3838.545465  	97.573455 
3844.257587  	97.733839 
3849.969708  	98.075741 
3855.681829  	97.584931 
3861.393950  	97.662280 
3867.106072  	97.957511 
3872.818193  	97.509057 
3878.530314  	97.616485 
3884.242435  	97.734658 
3889.954557  	97.383330 
3895.666678  	97.798944 
3901.378799  	97.789801 
3907.090920  	97.321107 
3912.803041  	97.756912 
3918.515163  	97.683609 
3924.227284  	97.303090 
3929.939405  	97.643460 
3935.651526  	97.472439 
3941.363648  	97.452523 
3947.075769  	97.694614 
3952.787890  	97.388860 
3958.500011  	97.497216 
3964.212132  	97.520824 
3969.924254  	97.316248 
3975.636375  	97.538832 
3981.348496  	97.440918 
3987.060617  	97.380271 
3992.772739  	97.538399 
3998.484860  	97.307553 