##TITLE=No Description
##DATA TYPE=INFRARED SPECTRUM
##XUNITS=1/CM
##YUNITS=%T
399.848486  	97.460736 
405.560607  	106.385959 
411.272728  	100.293367 
416.984850  	95.926854 
422.696971  	100.955680 
428.409092  	97.932051 
434.121213  	96.161582 
439.833335  	96.771325 
445.545456  	95.978932 
451.257577  	96.601707 
456.969698  	96.172330 
462.681819  	95.013486 
468.393941  	95.687924 
474.106062  	95.536295 
479.818183  	96.174273 
485.530304  	96.149268 
491.242426  	94.667835 
496.954547  	95.316719 
502.666668  	95.155736 
508.378789  	94.057651 
514.090911  	94.102207 
519.803032  	92.906241 
525.515153  	92.185207 
531.227274  	90.493758 
536.939395  	86.892223 
542.651517  	87.380659 
548.363638  	89.488731 
554.075759  	89.684434 
559.787880  	91.136115 
565.500002  	91.655852 
571.212123  	91.689351 
576.924244  	93.022242 
582.636365  	92.887712 
588.348487  	93.355047 
594.060608  	94.023667 
599.772729  	93.204039 
605.484850  	93.926768 
611.196971  	93.841684 
616.909093  	92.922671 
622.621214  	93.913308 
628.333335  	93.398194 
634.045456  	93.443058 
639.757578  	94.627574 
645.469699  	93.322276 
651.181820  	94.048990 
656.893941  	94.260311 
662.606062  	92.151933 
668.318184  	94.143145 
674.030305  	92.202633 
679.742426  	90.685405 
685.454547  	93.531308 
691.166669  	74.610163 
696.878790  	53.066615 
702.590911  	68.002036 
708.303032  	91.860446 
714.015154  	93.805278 
719.727275  	93.823769 
725.439396  	95.685637 
731.151517  	93.351623 
736.863638  	92.316773 
742.575760  	88.736922 
748.287881  	84.360908 
754.000002  	84.388368 
759.712123  	84.899880 
765.424245  	87.332360 
771.136366  	91.238409 
776.848487  	92.627569 
782.560608  	94.167596 
788.272730  	95.406053 
793.984851  	95.509712 
799.696972  	96.393595 
805.409093  	96.187493 
811.121214  	95.753804 
816.833336  	96.061750 
822.545457  	95.686326 
828.257578  	96.183286 
833.969699  	96.496397 
839.681821  	95.787784 
845.393942  	96.312640 
851.106063  	96.708634 
856.818184  	96.494021 
862.530305  	96.658748 
868.242427  	96.260174 
873.954548  	96.367131 
879.666669  	96.864821 
885.378790  	96.523719 
891.090912  	96.598408 
896.803033  	96.242164 
902.515154  	95.023173 
908.227275  	95.053142 
913.939397  	95.750756 
919.651518  	96.162953 
925.363639  	96.423351 
931.075760  	96.326611 
936.787881  	96.338409 
942.500003  	96.312750 
948.212124  	96.316061 
953.924245  	96.475679 
959.636366  	95.765937 
965.348488  	95.196678 
971.060609  	95.429064 
976.772730  	94.923026 
982.484851  	94.533881 
988.196973  	94.832650 
993.909094  	94.634083 
999.621215  	94.296335 
1005.333336  	93.707527 
1011.045457  	92.990333 
1016.757579  	92.549212 
1022.469700  	90.866660 
1028.181821  	89.460065 
1033.893942  	90.671915 
1039.606064  	91.742855 
1045.318185  	91.260899 
1051.030306  	90.766276 
1056.742427  	90.285990 
1062.454548  	89.981826 
1068.166670  	90.158919 
1073.878791  	90.632595 
1079.590912  	91.335650 
1085.303033  	91.859871 
1091.015155  	92.541449 
1096.727276  	93.026502 
1102.439397  	92.873068 
1108.151518  	93.250300 
1113.863640  	93.935429 
1119.575761  	94.400393 
1125.287882  	94.980919 
1131.000003  	95.058381 
1136.712124  	94.980465 
1142.424246  	95.054042 
1148.136367  	94.572137 
1153.848488  	94.368214 
1159.560609  	94.950171 
1165.272731  	95.546061 
1170.984852  	95.790411 
1176.696973  	95.443011 
1182.409094  	95.225049 
1188.121215  	95.635105 
1193.833337  	95.774308 
1199.545458  	95.838326 
1205.257579  	96.133174 
1210.969700  	96.136650 
1216.681822  	96.120750 
1222.393943  	96.062630 
1228.106064  	95.830486 
1233.818185  	95.829643 
1239.530307  	95.718375 
1245.242428  	95.533973 
1250.954549  	95.586441 
1256.666670  	95.468808 
1262.378791  	95.388487 
1268.090913  	95.460928 
1273.803034  	95.443192 
1279.515155  	95.591068 
1285.227276  	95.661068 
1290.939398  	95.582154 
1296.651519  	95.619141 
1302.363640  	95.423629 
1308.075761  	95.207172 
1313.787883  	95.236400 
1319.500004  	95.148838 
1325.212125  	95.096646 
1330.924246  	95.087759 
1336.636367  	95.037520 
1342.348489  	95.061585 
1348.060610  	94.895777 
1353.772731  	94.809550 
1359.484852  	94.842623 
1365.196974  	94.567932 
1370.909095  	94.540241 
1376.621216  	94.703945 
1382.333337  	94.767167 
1388.045458  	95.167573 
1393.757580  	95.245183 
1399.469701  	95.009372 
1405.181822  	95.210165 
1410.893943  	95.006720 
1416.606065  	94.808496 
1422.318186  	95.165647 
1428.030307  	94.799170 
1433.742428  	94.370702 
1439.454550  	93.559572 
1445.166671  	91.132698 
1450.878792  	88.467047 
1456.590913  	90.705944 
1462.303034  	95.838735 
1468.015156  	95.583802 
1473.727277  	95.219930 
1479.439398  	97.022119 
1485.151519  	95.009279 
1490.863641  	89.977273 
1496.575762  	92.908007 
1502.287883  	97.250238 
1508.000004  	97.502588 
1513.712126  	96.657628 
1519.424247  	97.487170 
1525.136368  	96.969457 
1530.848489  	96.542587 
1536.560610  	96.431796 
1542.272732  	95.701528 
1547.984853  	96.414001 
1553.696974  	96.759561 
1559.409095  	96.281439 
1565.121217  	96.418234 
1570.833338  	96.437540 
1576.545459  	95.678308 
1582.257580  	95.319444 
1587.969701  	95.415252 
1593.681823  	94.821340 
1599.393944  	93.465232 
1605.106065  	94.018698 
1610.818186  	95.947543 
1616.530308  	95.947974 
1622.242429  	95.651935 
1627.954550  	96.102625 
1633.666671  	95.604508 
1639.378793  	95.634867 
1645.090914  	95.893755 
1650.803035  	95.455945 
1656.515156  	96.030248 
1662.227277  	96.137374 
1667.939399  	96.076747 
1673.651520  	96.575976 
1679.363641  	96.610261 
1685.075762  	96.803843 
1690.787884  	97.125684 
1696.500005  	97.084495 
1702.212126  	97.153815 
1707.924247  	97.169696 
1713.636369  	97.080130 
1719.348490  	97.021144 
1725.060611  	96.977965 
1730.772732  	96.937598 
1736.484853  	96.760878 
1742.196975  	96.733147 
1747.909096  	97.110376 
1753.621217  	97.532595 
1759.333338  	97.737551 
1765.045460  	98.096815 
1770.757581  	98.015290 
1776.469702  	97.984236 
1782.181823  	98.231586 
1787.893944  	98.070449 
1793.606066  	97.938441 
1799.318187  	97.950419 
1805.030308  	97.879218 
1810.742429  	98.026159 
1816.454551  	98.073834 
1822.166672  	98.063822 
1827.878793  	98.256723 
1833.590914  	98.222873 
1839.303036  	98.272930 
1845.015157  	98.294863 
1850.727278  	98.145205 
1856.439399  	98.262503 
1862.151520  	98.081838 
1867.863642  	97.836085 
1873.575763  	98.086321 
1879.287884  	98.005839 
1885.000005  	97.973570 
1890.712127  	98.224575 
1896.424248  	98.132345 
1902.136369  	98.266336 
1907.848490  	98.366474 
1913.560611  	98.177259 
1919.272733  	98.315863 
1924.984854  	98.173015 
1930.696975  	98.047203 
1936.409096  	98.224554 
1942.121218  	97.936448 
1947.833339  	98.100902 
1953.545460  	98.389455 
1959.257581  	97.989942 
1964.969703  	98.432959 
1970.681824  	98.621272 
1976.393945  	98.177302 
1982.106066  	98.542819 
1987.818187  	98.293842 
1993.530309  	98.152414 
1999.242430  	98.484800 
2004.954551  	98.442512 
2010.666672  	98.666887 
2016.378794  	98.366071 
2022.090915  	98.026387 
2027.803036  	98.446430 
2033.515157  	98.280493 
2039.227279  	98.454146 
2044.939400  	98.601182 
2050.651521  	98.036345 
2056.363642  	98.236155 
2062.075763  	98.362686 
2067.787885  	98.004632 
2073.500006  	98.114578 
2079.212127  	98.108993 
2084.924248  	97.994638 
2090.636370  	98.113044 
2096.348491  	98.046372 
2102.060612  	98.091215 
2107.772733  	98.145764 
2113.484854  	98.021645 
2119.196976  	98.166626 
2124.909097  	98.180707 
2130.621218  	98.044913 
2136.333339  	98.245502 
2142.045461  	98.242244 
2147.757582  	98.223900 
2153.469703  	98.418733 
2159.181824  	98.388975 
2164.893946  	98.643272 
2170.606067  	98.480030 
2176.318188  	98.355664 
2182.030309  	98.509461 
2187.742430  	98.064778 
2193.454552  	97.953685 
2199.166673  	98.148415 
2204.878794  	98.020200 
2210.590915  	98.187210 
2216.303037  	98.182476 
2222.015158  	97.978248 
2227.727279  	98.156719 
2233.439400  	98.085230 
2239.151522  	97.988601 
2244.863643  	98.106946 
2250.575764  	97.971338 
2256.287885  	97.988286 
2262.000006  	98.024006 
2267.712128  	97.957248 
2273.424249  	97.978629 
2279.136370  	97.982355 
2284.848491  	97.942203 
2290.560613  	97.910218 
2296.272734  	97.854063 
2301.984855  	97.828375 
2307.696976  	97.785125 
2313.409097  	97.706912 
2319.121219  	97.797512 
2324.833340  	97.765569 
2330.545461  	97.720784 
2336.257582  	97.848302 
2341.969704  	97.730644 
2347.681825  	97.621999 
2353.393946  	97.704694 
2359.106067  	97.724669 
2364.818189  	98.021796 
2370.530310  	98.197200 
2376.242431  	98.022124 
2381.954552  	97.914246 
2387.666673  	97.871293 
2393.378795  	97.792866 
2399.090916  	97.782690 
2404.803037  	97.753400 
2410.515158  	97.800250 
2416.227280  	97.855210 
2421.939401  	97.824239 
2427.651522  	97.851016 
2433.363643  	97.821268 
2439.075765  	97.821507 
2444.787886  	97.907482 
2450.500007  	97.817663 
2456.212128  	97.776556 
2461.924249  	97.809778 
2467.636371  	97.689850 
2473.348492  	97.696328 
2479.060613  	97.763583 
2484.772734  	97.690282 
2490.484856  	97.699627 
2496.196977  	97.713304 
2501.909098  	97.675743 
2507.621219  	97.686266 
2513.333340  	97.652081 
2519.045462  	97.631550 
2524.757583  	97.623643 
2530.469704  	97.601023 
2536.181825  	97.638546 
2541.893947  	97.606156 
2547.606068  	97.559684 
2553.318189  	97.570048 
2559.030310  	97.506537 
2564.742432  	97.495764 
2570.454553  	97.510000 
2576.166674  	97.448988 
2581.878795  	97.473541 
2587.590916  	97.470872 
2593.303038  	97.394773 
2599.015159  	97.392993 
2604.727280  	97.367273 
2610.439401  	97.334463 
2616.151523  	97.334390 
2621.863644  	97.298714 
2627.575765  	97.302139 
2633.287886  	97.294423 
2639.000007  	97.241422 
2644.712129  	97.235928 
2650.424250  	97.207985 
2656.136371  	97.169191 
2661.848492  	97.175825 
2667.560614  	97.136518 
2673.272735  	97.095973 
2678.984856  	97.114987 
2684.696977  	97.102646 
2690.409099  	97.079340 
2696.121220  	97.083882 
2701.833341  	97.067214 
2707.545462  	97.042881 
2713.257583  	97.040331 
2718.969705  	97.038757 
2724.681826  	97.006973 
2730.393947  	96.971905 
2736.106068  	96.976575 
2741.818190  	96.971519 
2747.530311  	96.935008 
2753.242432  	96.912793 
2758.954553  	96.890933 
2764.666675  	96.849002 
2770.378796  	96.798899 
2776.090917  	96.748591 
2781.803038  	96.706674 
2787.515159  	96.660644 
2793.227281  	96.600705 
2798.939402  	96.541185 
2804.651523  	96.469990 
2810.363644  	96.377918 
2816.075766  	96.308382 
2821.787887  	96.218778 
2827.500008  	96.037962 
2833.212129  	95.825990 
2838.924250  	95.276411 
2844.636372  	94.129134 
2850.348493  	93.491125 
2856.060614  	94.169741 
2861.772735  	94.882363 
2867.484857  	94.936708 
2873.196978  	94.897634 
2878.909099  	94.712994 
2884.621220  	94.442841 
2890.333342  	94.227701 
2896.045463  	93.735320 
2901.757584  	93.159741 
2907.469705  	92.423293 
2913.181826  	91.134046 
2918.893948  	90.281225 
2924.606069  	90.764676 
2930.318190  	91.855996 
2936.030311  	92.987720 
2941.742433  	93.950911 
2947.454554  	94.510714 
2953.166675  	94.857624 
2958.878796  	95.130956 
2964.590918  	95.431629 
2970.303039  	95.698518 
2976.015160  	95.786864 
2981.727281  	95.885433 
2987.439402  	95.927651 
2993.151524  	95.762449 
2998.863645  	95.531666 
3004.575766  	95.437073 
3010.287887  	95.522040 
3016.000009  	94.916025 
3021.712130  	93.500991 
3027.424251  	93.285759 
3033.136372  	94.533562 
3038.848493  	95.138770 
3044.560615  	95.041519 
3050.272736  	94.852368 
3055.984857  	94.240943 
3061.696978  	94.025640 
3067.409100  	94.538042 
3073.121221  	94.583894 
3078.833342  	94.175222 
3084.545463  	94.189463 
3090.257585  	94.516184 
3095.969706  	94.563054 
3101.681827  	94.331295 
3107.393948  	94.271539 
3113.106069  	94.311482 
3118.818191  	94.195417 
3124.530312  	94.079840 
3130.242433  	93.952356 
3135.954554  	93.778214 
3141.666676  	93.671041 
3147.378797  	93.508253 
3153.090918  	93.324641 
3158.803039  	93.211989 
3164.515161  	93.051153 
3170.227282  	92.903741 
3175.939403  	92.780264 
3181.651524  	92.610503 
3187.363645  	92.460598 
3193.075767  	92.290453 
3198.787888  	92.141122 
3204.500009  	92.060753 
3210.212130  	91.949680 
3215.924252  	91.847200 
3221.636373  	91.708865 
3227.348494  	91.551458 
3233.060615  	91.508388 
3238.772736  	91.399927 
3244.484858  	91.270736 
3250.196979  	91.276939 
3255.909100  	91.197072 
3261.621221  	91.088220 
3267.333343  	91.042252 
3273.045464  	90.946825 
3278.757585  	90.943793 
3284.469706  	90.974107 
3290.181828  	90.906861 
3295.893949  	90.865032 
3301.606070  	90.825115 
3307.318191  	90.819571 
3313.030312  	90.863775 
3318.742434  	90.823579 
3324.454555  	90.798266 
3330.166676  	90.812076 
3335.878797  	90.795357 
3341.590919  	90.811577 
3347.303040  	90.823076 
3353.015161  	90.849394 
3358.727282  	90.887576 
3364.439403  	90.880699 
3370.151525  	90.949400 
3375.863646  	91.042596 
3381.575767  	91.094473 
3387.287888  	91.156612 
3393.000010  	91.162796 
3398.712131  	91.262191 
3404.424252  	91.448764 
3410.136373  	91.488600 
3415.848495  	91.561975 
3421.560616  	91.706497 
3427.272737  	91.809934 
3432.984858  	91.997614 
3438.696979  	92.147110 
3444.409101  	92.244220 
3450.121222  	92.416525 
3455.833343  	92.529896 
3461.545464  	92.650258 
3467.257586  	92.845832 
3472.969707  	93.030997 
3478.681828  	93.212537 
3484.393949  	93.331682 
3490.106071  	93.494192 
3495.818192  	93.725237 
3501.530313  	93.860851 
3507.242434  	94.013427 
3512.954555  	94.189719 
3518.666677  	94.387291 
3524.378798  	94.672352 
3530.090919  	94.783523 
3535.803040  	94.914706 
3541.515162  	95.231504 
3547.227283  	95.385375 
3552.939404  	95.479484 
3558.651525  	95.730220 
3564.363646  	95.893945 
3570.075768  	96.024374 
3575.787889  	96.212846 
3581.500010  	96.389377 
3587.212131  	96.565582 
3592.924253  	96.701496 
3598.636374  	96.854264 
3604.348495  	97.004342 
3610.060616  	97.084379 
3615.772738  	97.191137 
3621.484859  	97.385324 
3627.196980  	97.556146 
3632.909101  	97.571716 
3638.621222  	97.582592 
3644.333344  	97.774893 
3650.045465  	97.932406 
3655.757586  	97.889192 
3661.469707  	97.996468 
3667.181829  	98.080641 
3672.893950  	98.048717 
3678.606071  	98.161160 
3684.318192  	98.249819 
3690.030314  	98.225501 
3695.742435  	98.217772 
3701.454556  	98.249433 
3707.166677  	98.279918 
3712.878798  	98.239800 
3718.590920  	98.213789 
3724.303041  	98.262074 
3730.015162  	98.207438 
3735.727283  	98.222560 
3741.439405  	98.481687 
3747.151526  	98.515199 
3752.863647  	98.393969 
3758.575768  	98.433068 
3764.287889  	98.291675 
3770.000011  	98.096854 
3775.712132  	98.194239 
3781.424253  	98.162612 
3787.136374  	98.027464 
3792.848496  	98.182721 
3798.560617  	98.232742 
3804.272738  	98.172167 
3809.984859  	98.301440 
3815.696981  	98.330313 
3821.409102  	98.116886 
3827.121223  	98.226999 
3832.833344  	98.307238 
3838.545465  	98.145236 
3844.257587  	98.246750 
3849.969708  	98.323284 
3855.681829  	98.204716 
3861.393950  	98.290892 
3867.106072  	98.321450 
3872.818193  	98.201571 
3878.530314  	98.236065 
3884.242435  	98.198568 
3889.954557  	98.138584 
3895.666678  	98.275011 
3901.378799  	98.272328 
3907.090920  	98.211746 
3912.803041  	98.252314 
3918.515163  	98.180550 
3924.227284  	98.128331 
3929.939405  	98.170135 
3935.651526  	98.163381 
3941.363648  	98.138605 
3947.075769  	98.104706 
3952.787890  	98.123098 
3958.500011  	98.153559 
3964.212132  	98.103617 
3969.924254  	98.109158 
3975.636375  	98.131335 
3981.348496  	98.119392 
3987.060617  	98.148821 
3992.772739  	98.095330 
3998.484860  	98.070011 