##TITLE=No Description
##DATA TYPE=INFRARED SPECTRUM
##XUNITS=1/CM
##YUNITS=%T
399.848486  	108.577523 
405.560607  	88.901930 
411.272728  	114.478652 
416.984850  	98.262014 
422.696971  	94.205353 
428.409092  	105.230080 
434.121213  	95.128088 
439.833335  	97.729271 
445.545456  	100.458318 
451.257577  	95.864849 
456.969698  	101.015388 
462.681819  	98.192460 
468.393941  	96.067751 
474.106062  	100.851066 
479.818183  	97.288124 
485.530304  	98.613354 
491.242426  	100.090889 
496.954547  	96.919186 
502.666668  	99.394718 
508.378789  	98.681308 
514.090911  	97.351309 
519.803032  	99.978892 
525.515153  	98.184028 
531.227274  	98.512259 
536.939395  	99.717454 
542.651517  	97.705557 
548.363638  	98.959676 
554.075759  	98.902236 
559.787880  	97.856000 
565.500002  	99.456975 
571.212123  	98.180092 
576.924244  	98.168155 
582.636365  	99.496122 
588.348487  	98.041292 
594.060608  	98.969687 
599.772729  	99.069696 
605.484850  	97.806980 
611.196971  	99.175414 
616.909093  	98.252612 
622.621214  	98.117949 
628.333335  	99.551049 
634.045456  	97.780201 
639.757578  	98.532190 
645.469699  	99.044302 
651.181820  	97.092005 
656.893941  	98.911289 
662.606062  	97.957651 
668.318184  	96.496715 
674.030305  	99.108106 
679.742426  	96.257796 
685.454547  	96.518390 
691.166669  	97.901929 
696.878790  	92.958433 
702.590911  	95.610101 
708.303032  	88.045747 
714.015154  	63.659277 
719.727275  	63.888936 
725.439396  	80.209557 
731.151517  	81.676573 
736.863638  	89.530638 
742.575760  	99.503383 
748.287881  	96.585627 
754.000002  	97.103069 
759.712123  	99.215050 
765.424245  	97.066174 
771.136366  	98.386047 
776.848487  	98.613825 
782.560608  	97.549443 
788.272730  	98.938224 
793.984851  	98.284694 
799.696972  	98.120911 
805.409093  	99.081129 
811.121214  	98.209583 
816.833336  	98.673535 
822.545457  	99.029734 
828.257578  	98.502535 
833.969699  	99.139806 
839.681821  	98.940964 
845.393942  	98.775472 
851.106063  	99.220255 
856.818184  	98.748857 
862.530305  	98.889469 
868.242427  	99.077658 
873.954548  	98.728532 
879.666669  	99.046081 
885.378790  	98.822221 
891.090912  	98.615315 
896.803033  	98.958726 
902.515154  	98.217266 
908.227275  	97.774746 
913.939397  	98.420535 
919.651518  	98.703465 
925.363639  	98.786557 
931.075760  	98.787010 
936.787881  	98.681077 
942.500003  	98.736506 
948.212124  	98.632062 
953.924245  	98.565405 
959.636366  	98.562605 
965.348488  	98.414673 
971.060609  	98.476700 
976.772730  	98.517471 
982.484851  	98.368451 
988.196973  	98.295090 
993.909094  	98.283030 
999.621215  	98.447377 
1005.333336  	98.567584 
1011.045457  	98.499177 
1016.757579  	98.531320 
1022.469700  	98.456643 
1028.181821  	98.389733 
1033.893942  	98.495577 
1039.606064  	98.367903 
1045.318185  	98.258235 
1051.030306  	98.290993 
1056.742427  	98.179124 
1062.454548  	98.151024 
1068.166670  	98.152718 
1073.878791  	98.075604 
1079.590912  	98.009560 
1085.303033  	97.954266 
1091.015155  	98.103711 
1096.727276  	98.240607 
1102.439397  	98.222747 
1108.151518  	98.285372 
1113.863640  	98.318375 
1119.575761  	98.379206 
1125.287882  	98.437068 
1131.000003  	98.390886 
1136.712124  	98.474676 
1142.424246  	98.531565 
1148.136367  	98.512123 
1153.848488  	98.558516 
1159.560609  	98.535876 
1165.272731  	98.589241 
1170.984852  	98.620450 
1176.696973  	98.505753 
1182.409094  	98.546241 
1188.121215  	98.541992 
1193.833337  	98.487058 
1199.545458  	98.581536 
1205.257579  	98.509588 
1210.969700  	98.453203 
1216.681822  	98.532028 
1222.393943  	98.455698 
1228.106064  	98.445148 
1233.818185  	98.433069 
1239.530307  	98.327921 
1245.242428  	98.347797 
1250.954549  	98.277265 
1256.666670  	98.239615 
1262.378791  	98.281968 
1268.090913  	98.127247 
1273.803034  	98.107277 
1279.515155  	98.115434 
1285.227276  	97.959526 
1290.939398  	97.897728 
1296.651519  	97.677207 
1302.363640  	97.502799 
1308.075761  	97.648642 
1313.787883  	97.718254 
1319.500004  	97.966935 
1325.212125  	98.224030 
1330.924246  	98.122841 
1336.636367  	98.104758 
1342.348489  	97.786861 
1348.060610  	97.370798 
1353.772731  	97.450652 
1359.484852  	97.243424 
1365.196974  	96.847258 
1370.909095  	97.019247 
1376.621216  	97.445742 
1382.333337  	98.072536 
1388.045458  	98.363321 
1393.757580  	98.205981 
1399.469701  	98.335229 
1405.181822  	98.152149 
1410.893943  	98.023341 
1416.606065  	98.142294 
1422.318186  	97.213422 
1428.030307  	96.626649 
1433.742428  	95.769889 
1439.454550  	93.490932 
1445.166671  	93.427866 
1450.878792  	92.005266 
1456.590913  	80.670812 
1462.303034  	70.378299 
1468.015156  	63.456747 
1473.727277  	70.004011 
1479.439398  	92.525372 
1485.151519  	97.997603 
1490.863641  	96.057494 
1496.575762  	97.624968 
1502.287883  	98.205713 
1508.000004  	97.027559 
1513.712126  	98.277176 
1519.424247  	98.167142 
1525.136368  	97.486898 
1530.848489  	98.370010 
1536.560610  	98.071171 
1542.272732  	97.389474 
1547.984853  	98.176656 
1553.696974  	98.081795 
1559.409095  	97.890918 
1565.121217  	98.165318 
1570.833338  	98.155654 
1576.545459  	98.129453 
1582.257580  	98.024037 
1587.969701  	98.127006 
1593.681823  	98.292296 
1599.393944  	98.104290 
1605.106065  	98.164125 
1610.818186  	98.291442 
1616.530308  	98.016492 
1622.242429  	98.057615 
1627.954550  	98.201492 
1633.666671  	97.922186 
1639.378793  	97.964186 
1645.090914  	98.153305 
1650.803035  	98.015638 
1656.515156  	98.254074 
1662.227277  	98.526877 
1667.939399  	98.531981 
1673.651520  	98.498460 
1679.363641  	98.632672 
1685.075762  	98.506869 
1690.787884  	98.584323 
1696.500005  	98.731082 
1702.212126  	98.268250 
1707.924247  	98.516976 
1713.636369  	98.770271 
1719.348490  	98.292018 
1725.060611  	98.552706 
1730.772732  	98.784192 
1736.484853  	98.282028 
1742.196975  	98.607774 
1747.909096  	98.891063 
1753.621217  	98.616537 
1759.333338  	98.820216 
1765.045460  	98.920128 
1770.757581  	98.739933 
1776.469702  	98.844427 
1782.181823  	98.864192 
1787.893944  	98.917567 
1793.606066  	98.911559 
1799.318187  	98.779734 
1805.030308  	98.987695 
1810.742429  	99.012623 
1816.454551  	98.893292 
1822.166672  	99.015987 
1827.878793  	98.804733 
1833.590914  	98.874375 
1839.303036  	99.162181 
1845.015157  	98.864666 
1850.727278  	98.934084 
1856.439399  	99.168520 
1862.151520  	98.953433 
1867.863642  	98.984873 
1873.575763  	98.967830 
1879.287884  	98.897114 
1885.000005  	99.029180 
1890.712127  	98.759764 
1896.424248  	98.726945 
1902.136369  	98.901618 
1907.848490  	98.795239 
1913.560611  	99.016077 
1919.272733  	99.006882 
1924.984854  	98.801933 
1930.696975  	99.092367 
1936.409096  	98.916333 
1942.121218  	98.787418 
1947.833339  	99.074030 
1953.545460  	98.810597 
1959.257581  	98.964975 
1964.969703  	98.972473 
1970.681824  	98.470994 
1976.393945  	98.756444 
1982.106066  	98.363800 
1987.818187  	98.504392 
1993.530309  	99.060006 
1999.242430  	98.707391 
2004.954551  	98.875506 
2010.666672  	98.814990 
2016.378794  	98.047217 
2022.090915  	98.489162 
2027.803036  	98.237092 
2033.515157  	98.140533 
2039.227279  	98.867617 
2044.939400  	98.425739 
2050.651521  	98.432832 
2056.363642  	98.894377 
2062.075763  	98.789756 
2067.787885  	98.815003 
2073.500006  	98.848541 
2079.212127  	98.834382 
2084.924248  	99.000506 
2090.636370  	98.920737 
2096.348491  	98.899338 
2102.060612  	98.941669 
2107.772733  	98.763095 
2113.484854  	98.841433 
2119.196976  	98.948889 
2124.909097  	99.038343 
2130.621218  	99.294017 
2136.333339  	99.053132 
2142.045461  	98.743912 
2147.757582  	99.023229 
2153.469703  	98.781018 
2159.181824  	98.189209 
2164.893946  	98.082804 
2170.606067  	98.551470 
2176.318188  	99.033364 
2182.030309  	98.662526 
2187.742430  	98.444705 
2193.454552  	98.659366 
2199.166673  	98.636885 
2204.878794  	98.757768 
2210.590915  	98.748302 
2216.303037  	98.543063 
2222.015158  	98.531646 
2227.727279  	98.423389 
2233.439400  	98.460864 
2239.151522  	98.535223 
2244.863643  	98.417672 
2250.575764  	98.463498 
2256.287885  	98.724789 
2262.000006  	98.801146 
2267.712128  	98.784465 
2273.424249  	98.777913 
2279.136370  	98.657992 
2284.848491  	98.500018 
2290.560613  	98.348784 
2296.272734  	98.290812 
2301.984855  	98.205747 
2307.696976  	98.050413 
2313.409097  	98.009261 
2319.121219  	97.894090 
2324.833340  	97.553175 
2330.545461  	97.826327 
2336.257582  	98.425207 
2341.969704  	98.024949 
2347.681825  	97.693251 
2353.393946  	98.568470 
2359.106067  	99.613669 
2364.818189  	99.851101 
2370.530310  	99.719537 
2376.242431  	99.098777 
2381.954552  	98.574431 
2387.666673  	98.678401 
2393.378795  	98.597932 
2399.090916  	98.550899 
2404.803037  	98.572421 
2410.515158  	98.432878 
2416.227280  	98.402992 
2421.939401  	98.423214 
2427.651522  	98.399147 
2433.363643  	98.441041 
2439.075765  	98.379760 
2444.787886  	98.364296 
2450.500007  	98.407433 
2456.212128  	98.363305 
2461.924249  	98.443093 
2467.636371  	98.383678 
2473.348492  	98.247800 
2479.060613  	98.379324 
2484.772734  	98.307682 
2490.484856  	98.233037 
2496.196977  	98.368653 
2501.909098  	98.241225 
2507.621219  	98.246206 
2513.333340  	98.295052 
2519.045462  	98.089548 
2524.757583  	98.143622 
2530.469704  	98.093768 
2536.181825  	97.965663 
2541.893947  	98.079594 
2547.606068  	97.863285 
2553.318189  	97.771656 
2559.030310  	97.860091 
2564.742432  	97.612699 
2570.454553  	97.641645 
2576.166674  	97.605088 
2581.878795  	97.355569 
2587.590916  	97.436894 
2593.303038  	97.242102 
2599.015159  	97.073691 
2604.727280  	97.162749 
2610.439401  	96.914644 
2616.151523  	96.840780 
2621.863644  	96.715706 
2627.575765  	96.337489 
2633.287886  	96.341627 
2639.000007  	96.321139 
2644.712129  	96.388919 
2650.424250  	96.593592 
2656.136371  	96.401388 
2661.848492  	96.467376 
2667.560614  	96.683180 
2673.272735  	96.609936 
2678.984856  	96.823653 
2684.696977  	96.823758 
2690.409099  	96.648798 
2696.121220  	96.820879 
2701.833341  	96.542917 
2707.545462  	96.362699 
2713.257583  	96.478388 
2718.969705  	96.099076 
2724.681826  	96.060553 
2730.393947  	95.961798 
2736.106068  	95.529241 
2741.818190  	95.693486 
2747.530311  	95.478582 
2753.242432  	95.246552 
2758.954553  	95.312340 
2764.666675  	94.587353 
2770.378796  	94.372873 
2776.090917  	93.984404 
2781.803038  	92.788880 
2787.515159  	92.540869 
2793.227281  	91.357728 
2798.939402  	90.052495 
2804.651523  	89.726538 
2810.363644  	87.277758 
2816.075766  	85.733194 
2821.787887  	83.505861 
2827.500008  	77.188903 
2833.212129  	71.610642 
2838.924250  	53.860573 
2844.636372  	25.334313 
2850.348493  	29.380138 
2856.060614  	62.950980 
2861.772735  	78.844160 
2867.484857  	80.377856 
2873.196978  	80.314580 
2878.909099  	71.962132 
2884.621220  	63.593141 
2890.333342  	56.727143 
2896.045463  	48.611584 
2901.757584  	42.616001 
2907.469705  	31.039789 
2913.181826  	21.279104 
2918.893948  	31.709300 
2924.606069  	52.277302 
2930.318190  	67.026792 
2936.030311  	78.018419 
2941.742433  	85.443135 
2947.454554  	89.711184 
2953.166675  	92.358116 
2958.878796  	93.093874 
2964.590918  	94.300477 
2970.303039  	95.273823 
2976.015160  	95.445651 
2981.727281  	96.241603 
2987.439402  	96.345259 
2993.151524  	96.402428 
2998.863645  	96.868168 
3004.575766  	96.608871 
3010.287887  	96.810705 
3016.000009  	96.978987 
3021.712130  	96.706048 
3027.424251  	97.059141 
3033.136372  	96.958947 
3038.848493  	96.871109 
3044.560615  	97.277468 
3050.272736  	97.045537 
3055.984857  	97.189086 
3061.696978  	97.410169 
3067.409100  	97.102604 
3073.121221  	97.384909 
3078.833342  	97.345556 
3084.545463  	97.174383 
3090.257585  	97.556751 
3095.969706  	97.398649 
3101.681827  	97.505426 
3107.393948  	97.809349 
3113.106069  	97.534863 
3118.818191  	97.744377 
3124.530312  	97.802434 
3130.242433  	97.603329 
3135.954554  	97.899073 
3141.666676  	97.723410 
3147.378797  	97.642425 
3153.090918  	97.852652 
3158.803039  	97.586970 
3164.515161  	97.737537 
3170.227282  	97.790696 
3175.939403  	97.531477 
3181.651524  	97.803311 
3187.363645  	97.666346 
3193.075767  	97.538463 
3198.787888  	97.773243 
3204.500009  	97.500755 
3210.212130  	97.619025 
3215.924252  	97.748285 
3221.636373  	97.435463 
3227.348494  	97.676365 
3233.060615  	97.590217 
3238.772736  	97.400654 
3244.484858  	97.717516 
3250.196979  	97.496326 
3255.909100  	97.485853 
3261.621221  	97.686270 
3267.333343  	97.422527 
3273.045464  	97.576543 
3278.757585  	97.562113 
3284.469706  	97.398315 
3290.181828  	97.687660 
3295.893949  	97.486786 
3301.606070  	97.431645 
3307.318191  	97.645032 
3313.030312  	97.355849 
3318.742434  	97.503706 
3324.454555  	97.592459 
3330.166676  	97.323084 
3335.878797  	97.556551 
3341.590919  	97.446635 
3347.303040  	97.327409 
3353.015161  	97.609249 
3358.727282  	97.366209 
3364.439403  	97.363617 
3370.151525  	97.508887 
3375.863646  	97.282536 
3381.575767  	97.510499 
3387.287888  	97.514545 
3393.000010  	97.288478 
3398.712131  	97.508409 
3404.424252  	97.403936 
3410.136373  	97.369221 
3415.848495  	97.471877 
3421.560616  	97.236374 
3427.272737  	97.393826 
3432.984858  	97.444395 
3438.696979  	97.272548 
3444.409101  	97.475984 
3450.121222  	97.355259 
3455.833343  	97.311669 
3461.545464  	97.474178 
3467.257586  	97.272676 
3472.969707  	97.431924 
3478.681828  	97.482808 
3484.393949  	97.225125 
3490.106071  	97.470393 
3495.818192  	97.411605 
3501.530313  	97.261897 
3507.242434  	97.454030 
3512.954555  	97.263971 
3518.666677  	97.371187 
3524.378798  	97.527231 
3530.090919  	97.213543 
3535.803040  	97.463151 
3541.515162  	97.569796 
3547.227283  	97.336801 
3552.939404  	97.410385 
3558.651525  	97.468147 
3564.363646  	97.572797 
3570.075768  	97.499110 
3575.787889  	97.320164 
3581.500010  	97.614058 
3587.212131  	97.625239 
3592.924253  	97.323215 
3598.636374  	97.404937 
3604.348495  	97.367836 
3610.060616  	97.388072 
3615.772738  	97.442788 
3621.484859  	97.433499 
3627.196980  	97.733211 
3632.909101  	97.457371 
3638.621222  	97.291055 
3644.333344  	97.954410 
3650.045465  	97.820302 
3655.757586  	97.277547 
3661.469707  	97.640765 
3667.181829  	97.872768 
3672.893950  	97.573999 
3678.606071  	97.481199 
3684.318192  	97.629770 
3690.030314  	97.696557 
3695.742435  	97.336579 
3701.454556  	97.400658 
3707.166677  	97.684059 
3712.878798  	97.251849 
3718.590920  	97.347094 
3724.303041  	97.632289 
3730.015162  	97.352143 
3735.727283  	97.472512 
3741.439405  	97.718002 
3747.151526  	97.500788 
3752.863647  	97.427706 
3758.575768  	97.457086 
3764.287889  	97.500039 
3770.000011  	97.389878 
3775.712132  	97.371126 
3781.424253  	97.542552 
3787.136374  	97.279496 
3792.848496  	97.397764 
3798.560617  	97.774796 
3804.272738  	96.976053 
3809.984859  	97.270948 
3815.696981  	97.793891 
3821.409102  	96.798070 
3827.121223  	97.167373 
3832.833344  	97.638632 
3838.545465  	96.759049 
3844.257587  	97.259035 
3849.969708  	97.555009 
3855.681829  	96.811094 
3861.393950  	97.316478 
3867.106072  	97.294434 
3872.818193  	96.832785 
3878.530314  	97.237406 
3884.242435  	97.033695 
3889.954557  	96.913825 
3895.666678  	97.369975 
3901.378799  	97.050242 
3907.090920  	96.940016 
3912.803041  	97.213089 
3918.515163  	97.106725 
3924.227284  	97.037723 
3929.939405  	97.010161 
3935.651526  	96.985423 
3941.363648  	97.066900 
3947.075769  	96.962152 
3952.787890  	96.950895 
3958.500011  	96.992361 
3964.212132  	96.865683 
3969.924254  	96.889866 
3975.636375  	96.851328 
3981.348496  	96.811070 
3987.060617  	96.950715 
3992.772739  	96.846318 
3998.484860  	96.828648 