##TITLE=No Description
##DATA TYPE=INFRARED SPECTRUM
##XUNITS=1/CM
##YUNITS=%T
399.848486  	110.920942 
405.560607  	90.061691 
411.272728  	102.663132 
416.984850  	93.204893 
422.696971  	90.528145 
428.409092  	100.448702 
434.121213  	94.814000 
439.833335  	96.504922 
445.545456  	98.098622 
451.257577  	93.317836 
456.969698  	96.848910 
462.681819  	95.735745 
468.393941  	93.759632 
474.106062  	97.595751 
479.818183  	94.786481 
485.530304  	95.144051 
491.242426  	96.930343 
496.954547  	94.131948 
502.666668  	95.703888 
508.378789  	96.224221 
514.090911  	94.843143 
519.803032  	96.277712 
525.515153  	94.980675 
531.227274  	94.920410 
536.939395  	96.172007 
542.651517  	94.719515 
548.363638  	95.381553 
554.075759  	95.669518 
559.787880  	94.663398 
565.500002  	95.753476 
571.212123  	95.059923 
576.924244  	94.699828 
582.636365  	95.758544 
588.348487  	94.793415 
594.060608  	95.223320 
599.772729  	95.520954 
605.484850  	94.634898 
611.196971  	95.672812 
616.909093  	95.134880 
622.621214  	94.667515 
628.333335  	95.754041 
634.045456  	94.552106 
639.757578  	94.848068 
645.469699  	95.330749 
651.181820  	93.647678 
656.893941  	94.925275 
662.606062  	94.440353 
668.318184  	92.496299 
674.030305  	94.719020 
679.742426  	93.401641 
685.454547  	93.035477 
691.166669  	94.693047 
696.878790  	91.518030 
702.590911  	92.822919 
708.303032  	89.789427 
714.015154  	73.426151 
719.727275  	68.725333 
725.439396  	77.259237 
731.151517  	80.999276 
736.863638  	89.344815 
742.575760  	96.659208 
748.287881  	94.449073 
754.000002  	95.093641 
759.712123  	96.663076 
765.424245  	95.112122 
771.136366  	96.178672 
776.848487  	96.297966 
782.560608  	95.533293 
788.272730  	96.694171 
793.984851  	96.232768 
799.696972  	96.139659 
805.409093  	96.881625 
811.121214  	96.233003 
816.833336  	96.618036 
822.545457  	96.840202 
828.257578  	96.524165 
833.969699  	97.213119 
839.681821  	97.100608 
845.393942  	96.983190 
851.106063  	97.358613 
856.818184  	97.027911 
862.530305  	97.148193 
868.242427  	97.134806 
873.954548  	96.734223 
879.666669  	97.052609 
885.378790  	97.056477 
891.090912  	97.002422 
896.803033  	97.219476 
902.515154  	96.966468 
908.227275  	97.036047 
913.939397  	97.106528 
919.651518  	96.868576 
925.363639  	96.994768 
931.075760  	96.849967 
936.787881  	96.663541 
942.500003  	96.759129 
948.212124  	96.497691 
953.924245  	96.405959 
959.636366  	96.427127 
965.348488  	96.214269 
971.060609  	96.300487 
976.772730  	96.319183 
982.484851  	96.275349 
988.196973  	96.387059 
993.909094  	96.239404 
999.621215  	96.256110 
1005.333336  	96.293042 
1011.045457  	96.007448 
1016.757579  	95.952417 
1022.469700  	95.786288 
1028.181821  	95.517321 
1033.893942  	95.542290 
1039.606064  	95.352280 
1045.318185  	95.176403 
1051.030306  	95.032566 
1056.742427  	94.698957 
1062.454548  	94.749899 
1068.166670  	94.762567 
1073.878791  	94.639778 
1079.590912  	94.779739 
1085.303033  	94.831142 
1091.015155  	95.192760 
1096.727276  	95.510431 
1102.439397  	95.358314 
1108.151518  	95.554508 
1113.863640  	95.719730 
1119.575761  	95.775589 
1125.287882  	96.038710 
1131.000003  	95.956746 
1136.712124  	96.005245 
1142.424246  	96.169737 
1148.136367  	95.987460 
1153.848488  	96.078882 
1159.560609  	96.178711 
1165.272731  	96.166661 
1170.984852  	96.412380 
1176.696973  	96.414046 
1182.409094  	96.431157 
1188.121215  	96.609043 
1193.833337  	96.532427 
1199.545458  	96.592976 
1205.257579  	96.581183 
1210.969700  	96.415508 
1216.681822  	96.503480 
1222.393943  	96.339701 
1228.106064  	96.129570 
1233.818185  	96.150591 
1239.530307  	95.896193 
1245.242428  	95.769499 
1250.954549  	95.758594 
1256.666670  	95.589420 
1262.378791  	95.645779 
1268.090913  	95.637119 
1273.803034  	95.676055 
1279.515155  	95.847908 
1285.227276  	95.668004 
1290.939398  	95.587837 
1296.651519  	95.488832 
1302.363640  	95.206378 
1308.075761  	95.411387 
1313.787883  	95.540425 
1319.500004  	95.668132 
1325.212125  	96.119848 
1330.924246  	95.944733 
1336.636367  	95.725003 
1342.348489  	95.643613 
1348.060610  	95.142044 
1353.772731  	95.153882 
1359.484852  	94.983812 
1365.196974  	94.274005 
1370.909095  	94.514140 
1376.621216  	94.809775 
1382.333337  	95.087553 
1388.045458  	95.588915 
1393.757580  	95.071466 
1399.469701  	95.016823 
1405.181822  	95.284607 
1410.893943  	94.752217 
1416.606065  	95.043602 
1422.318186  	94.585873 
1428.030307  	93.580553 
1433.742428  	93.450659 
1439.454550  	91.236803 
1445.166671  	90.969766 
1450.878792  	90.972239 
1456.590913  	78.975857 
1462.303034  	71.190582 
1468.015156  	72.800311 
1473.727277  	80.547710 
1479.439398  	92.327319 
1485.151519  	96.275632 
1490.863641  	95.645671 
1496.575762  	95.636555 
1502.287883  	96.533244 
1508.000004  	95.329640 
1513.712126  	95.598556 
1519.424247  	96.015460 
1525.136368  	94.967798 
1530.848489  	95.721609 
1536.560610  	95.505656 
1542.272732  	93.996842 
1547.984853  	95.434787 
1553.696974  	95.313618 
1559.409095  	94.661940 
1565.121217  	95.645807 
1570.833338  	95.314668 
1576.545459  	95.192553 
1582.257580  	95.656394 
1587.969701  	95.556169 
1593.681823  	95.787015 
1599.393944  	95.781761 
1605.106065  	95.539734 
1610.818186  	95.756665 
1616.530308  	95.335637 
1622.242429  	94.986585 
1627.954550  	95.236303 
1633.666671  	94.555775 
1639.378793  	94.535844 
1645.090914  	94.709405 
1650.803035  	93.870973 
1656.515156  	94.868639 
1662.227277  	95.312670 
1667.939399  	95.335762 
1673.651520  	95.926103 
1679.363641  	95.991307 
1685.075762  	96.214171 
1690.787884  	96.680903 
1696.500005  	96.536656 
1702.212126  	96.501040 
1707.924247  	96.828595 
1713.636369  	96.628626 
1719.348490  	96.526903 
1725.060611  	97.073206 
1730.772732  	97.230567 
1736.484853  	96.863646 
1742.196975  	97.153914 
1747.909096  	97.609935 
1753.621217  	97.720534 
1759.333338  	97.999259 
1765.045460  	98.220700 
1770.757581  	97.963026 
1776.469702  	98.120593 
1782.181823  	98.349802 
1787.893944  	98.249124 
1793.606066  	98.234459 
1799.318187  	98.236003 
1805.030308  	98.354810 
1810.742429  	98.466570 
1816.454551  	98.355483 
1822.166672  	98.434642 
1827.878793  	98.386288 
1833.590914  	98.340692 
1839.303036  	98.591265 
1845.015157  	98.374815 
1850.727278  	98.356704 
1856.439399  	98.713599 
1862.151520  	98.485321 
1867.863642  	98.423688 
1873.575763  	98.617435 
1879.287884  	98.444609 
1885.000005  	98.539895 
1890.712127  	98.416542 
1896.424248  	98.237594 
1902.136369  	98.559629 
1907.848490  	98.496372 
1913.560611  	98.464352 
1919.272733  	98.643580 
1924.984854  	98.432782 
1930.696975  	98.660663 
1936.409096  	98.645074 
1942.121218  	98.259832 
1947.833339  	98.782372 
1953.545460  	98.745142 
1959.257581  	98.445469 
1964.969703  	98.785236 
1970.681824  	98.230815 
1976.393945  	98.298307 
1982.106066  	98.555283 
1987.818187  	98.218899 
1993.530309  	98.574430 
1999.242430  	98.605397 
2004.954551  	98.534351 
2010.666672  	98.667623 
2016.378794  	97.850546 
2022.090915  	97.944051 
2027.803036  	98.103165 
2033.515157  	97.785829 
2039.227279  	98.378981 
2044.939400  	98.167239 
2050.651521  	97.993938 
2056.363642  	98.555643 
2062.075763  	98.422894 
2067.787885  	98.335180 
2073.500006  	98.526027 
2079.212127  	98.364304 
2084.924248  	98.512834 
2090.636370  	98.588537 
2096.348491  	98.422533 
2102.060612  	98.507763 
2107.772733  	98.368381 
2113.484854  	98.360897 
2119.196976  	98.584446 
2124.909097  	98.505001 
2130.621218  	98.574674 
2136.333339  	98.518625 
2142.045461  	98.137421 
2147.757582  	98.427293 
2153.469703  	98.251364 
2159.181824  	97.740563 
2164.893946  	98.273217 
2170.606067  	98.247050 
2176.318188  	98.321451 
2182.030309  	98.520968 
2187.742430  	98.151256 
2193.454552  	98.163909 
2199.166673  	98.301161 
2204.878794  	98.245426 
2210.590915  	98.248856 
2216.303037  	98.131547 
2222.015158  	98.121240 
2227.727279  	98.169242 
2233.439400  	98.166920 
2239.151522  	98.152664 
2244.863643  	97.979255 
2250.575764  	97.993329 
2256.287885  	99.050735 
2262.000006  	99.706517 
2267.712128  	99.616708 
2273.424249  	100.228524 
2279.136370  	99.392206 
2284.848491  	98.318315 
2290.560613  	97.795427 
2296.272734  	97.466271 
2301.984855  	97.062189 
2307.696976  	96.805366 
2313.409097  	96.563282 
2319.121219  	96.753241 
2324.833340  	95.507107 
2330.545461  	95.376365 
2336.257582  	97.588992 
2341.969704  	96.752443 
2347.681825  	94.981123 
2353.393946  	97.909444 
2359.106067  	102.490693 
2364.818189  	103.478823 
2370.530310  	102.067171 
2376.242431  	99.726384 
2381.954552  	97.894914 
2387.666673  	98.196773 
2393.378795  	98.176764 
2399.090916  	98.164622 
2404.803037  	98.106154 
2410.515158  	97.951597 
2416.227280  	97.962893 
2421.939401  	97.961390 
2427.651522  	98.019100 
2433.363643  	98.047519 
2439.075765  	97.966383 
2444.787886  	98.023950 
2450.500007  	98.009230 
2456.212128  	97.969973 
2461.924249  	98.057937 
2467.636371  	97.915232 
2473.348492  	97.827625 
2479.060613  	97.956710 
2484.772734  	97.837923 
2490.484856  	97.792048 
2496.196977  	97.886272 
2501.909098  	97.766134 
2507.621219  	97.769659 
2513.333340  	97.804626 
2519.045462  	97.706097 
2524.757583  	97.719484 
2530.469704  	97.630262 
2536.181825  	97.593793 
2541.893947  	97.674012 
2547.606068  	97.483155 
2553.318189  	97.406466 
2559.030310  	97.446824 
2564.742432  	97.302159 
2570.454553  	97.292225 
2576.166674  	97.222900 
2581.878795  	97.104184 
2587.590916  	97.124113 
2593.303038  	96.947580 
2599.015159  	96.884942 
2604.727280  	96.923051 
2610.439401  	96.733796 
2616.151523  	96.689047 
2621.863644  	96.562057 
2627.575765  	96.328097 
2633.287886  	96.340520 
2639.000007  	96.258779 
2644.712129  	96.277558 
2650.424250  	96.400429 
2656.136371  	96.259098 
2661.848492  	96.308925 
2667.560614  	96.404155 
2673.272735  	96.321658 
2678.984856  	96.489780 
2684.696977  	96.484127 
2690.409099  	96.379334 
2696.121220  	96.526447 
2701.833341  	96.334183 
2707.545462  	96.222270 
2713.257583  	96.279518 
2718.969705  	95.981071 
2724.681826  	95.966258 
2730.393947  	95.875347 
2736.106068  	95.555460 
2741.818190  	95.673512 
2747.530311  	95.463596 
2753.242432  	95.284443 
2758.954553  	95.336089 
2764.666675  	94.749568 
2770.378796  	94.575961 
2776.090917  	94.285950 
2781.803038  	93.365200 
2787.515159  	93.135591 
2793.227281  	92.146134 
2798.939402  	91.089695 
2804.651523  	90.738931 
2810.363644  	88.611465 
2816.075766  	87.254518 
2821.787887  	85.373719 
2827.500008  	80.254878 
2833.212129  	75.928220 
2838.924250  	61.282716 
2844.636372  	36.905246 
2850.348493  	39.576249 
2856.060614  	67.583633 
2861.772735  	80.775631 
2867.484857  	82.192189 
2873.196978  	82.909052 
2878.909099  	76.213884 
2884.621220  	69.476102 
2890.333342  	64.154913 
2896.045463  	57.428847 
2901.757584  	53.506930 
2907.469705  	43.528594 
2913.181826  	31.112144 
2918.893948  	37.461281 
2924.606069  	56.582070 
2930.318190  	69.873095 
2936.030311  	79.175328 
2941.742433  	86.088441 
2947.454554  	89.324409 
2953.166675  	91.083156 
2958.878796  	91.828567 
2964.590918  	92.852814 
2970.303039  	93.881074 
2976.015160  	94.049737 
2981.727281  	94.677576 
2987.439402  	95.147143 
2993.151524  	95.291932 
2998.863645  	95.703191 
3004.575766  	95.718799 
3010.287887  	95.887032 
3016.000009  	96.110786 
3021.712130  	95.965505 
3027.424251  	96.125665 
3033.136372  	96.088468 
3038.848493  	96.025957 
3044.560615  	96.258776 
3050.272736  	96.059994 
3055.984857  	96.082693 
3061.696978  	96.208162 
3067.409100  	95.982427 
3073.121221  	96.180821 
3078.833342  	96.137856 
3084.545463  	95.930723 
3090.257585  	96.218875 
3095.969706  	96.116465 
3101.681827  	96.082953 
3107.393948  	96.299420 
3113.106069  	96.082435 
3118.818191  	96.133151 
3124.530312  	96.181396 
3130.242433  	96.004081 
3135.954554  	96.145409 
3141.666676  	95.990620 
3147.378797  	95.851149 
3153.090918  	95.947497 
3158.803039  	95.687131 
3164.515161  	95.690612 
3170.227282  	95.694934 
3175.939403  	95.419147 
3181.651524  	95.531518 
3187.363645  	95.420983 
3193.075767  	95.225240 
3198.787888  	95.343995 
3204.500009  	95.159636 
3210.212130  	95.146866 
3215.924252  	95.159650 
3221.636373  	94.864394 
3227.348494  	94.955882 
3233.060615  	94.874730 
3238.772736  	94.674103 
3244.484858  	94.862915 
3250.196979  	94.719266 
3255.909100  	94.628819 
3261.621221  	94.679363 
3267.333343  	94.431477 
3273.045464  	94.482725 
3278.757585  	94.441172 
3284.469706  	94.280324 
3290.181828  	94.494289 
3295.893949  	94.379197 
3301.606070  	94.284216 
3307.318191  	94.417001 
3313.030312  	94.231350 
3318.742434  	94.341894 
3324.454555  	94.418360 
3330.166676  	94.189465 
3335.878797  	94.353884 
3341.590919  	94.304386 
3347.303040  	94.163704 
3353.015161  	94.377423 
3358.727282  	94.267066 
3364.439403  	94.241529 
3370.151525  	94.349545 
3375.863646  	94.208674 
3381.575767  	94.363257 
3387.287888  	94.373220 
3393.000010  	94.214763 
3398.712131  	94.433760 
3404.424252  	94.443285 
3410.136373  	94.431641 
3415.848495  	94.508371 
3421.560616  	94.358074 
3427.272737  	94.552097 
3432.984858  	94.681721 
3438.696979  	94.542465 
3444.409101  	94.704029 
3450.121222  	94.702970 
3455.833343  	94.732357 
3461.545464  	94.926016 
3467.257586  	94.822650 
3472.969707  	94.994535 
3478.681828  	95.128347 
3484.393949  	94.959689 
3490.106071  	95.220719 
3495.818192  	95.309378 
3501.530313  	95.229384 
3507.242434  	95.443681 
3512.954555  	95.404441 
3518.666677  	95.534412 
3524.378798  	95.678069 
3530.090919  	95.451532 
3535.803040  	95.781902 
3541.515162  	95.988209 
3547.227283  	95.888351 
3552.939404  	96.047440 
3558.651525  	96.161773 
3564.363646  	96.278083 
3570.075768  	96.398791 
3575.787889  	96.282580 
3581.500010  	96.538851 
3587.212131  	96.659261 
3592.924253  	96.385353 
3598.636374  	96.446992 
3604.348495  	96.616246 
3610.060616  	96.775557 
3615.772738  	96.814845 
3621.484859  	96.770232 
3627.196980  	97.012699 
3632.909101  	96.902066 
3638.621222  	96.801406 
3644.333344  	97.382659 
3650.045465  	97.307261 
3655.757586  	96.964679 
3661.469707  	97.308017 
3667.181829  	97.562220 
3672.893950  	97.232455 
3678.606071  	97.236028 
3684.318192  	97.329740 
3690.030314  	97.334745 
3695.742435  	97.049774 
3701.454556  	97.036262 
3707.166677  	97.334217 
3712.878798  	97.094054 
3718.590920  	97.040322 
3724.303041  	97.142637 
3730.015162  	96.992387 
3735.727283  	97.265793 
3741.439405  	97.566065 
3747.151526  	97.436333 
3752.863647  	97.370896 
3758.575768  	97.338636 
3764.287889  	97.385609 
3770.000011  	97.297805 
3775.712132  	97.196732 
3781.424253  	97.317505 
3787.136374  	97.076331 
3792.848496  	97.170021 
3798.560617  	97.482331 
3804.272738  	96.873012 
3809.984859  	97.110507 
3815.696981  	97.533394 
3821.409102  	96.678930 
3827.121223  	96.987985 
3832.833344  	97.412669 
3838.545465  	96.644161 
3844.257587  	97.050735 
3849.969708  	97.345434 
3855.681829  	96.670890 
3861.393950  	97.020940 
3867.106072  	96.964977 
3872.818193  	96.574464 
3878.530314  	96.942284 
3884.242435  	96.824427 
3889.954557  	96.719796 
3895.666678  	97.085053 
3901.378799  	96.813948 
3907.090920  	96.778100 
3912.803041  	96.980449 
3918.515163  	96.813119 
3924.227284  	96.810999 
3929.939405  	96.830759 
3935.651526  	96.749724 
3941.363648  	96.804086 
3947.075769  	96.685959 
3952.787890  	96.680337 
3958.500011  	96.756721 
3964.212132  	96.597229 
3969.924254  	96.611680 
3975.636375  	96.616374 
3981.348496  	96.556461 
3987.060617  	96.707421 
3992.772739  	96.609805 
3998.484860  	96.565307 