##TITLE=No Description
##DATA TYPE=INFRARED SPECTRUM
##XUNITS=1/CM
##YUNITS=%T
399.848486  	101.898425 
405.560607  	86.552676 
411.272728  	97.356105 
416.984850  	94.526607 
422.696971  	90.540986 
428.409092  	97.226655 
434.121213  	91.647158 
439.833335  	92.252570 
445.545456  	96.781062 
451.257577  	93.773351 
456.969698  	95.937658 
462.681819  	96.400229 
468.393941  	93.650931 
474.106062  	96.887769 
479.818183  	96.134794 
485.530304  	94.765438 
491.242426  	96.225145 
496.954547  	94.956011 
502.666668  	95.164322 
508.378789  	95.450220 
514.090911  	94.109834 
519.803032  	94.652648 
525.515153  	94.054791 
531.227274  	93.532447 
536.939395  	94.031917 
542.651517  	92.895600 
548.363638  	92.868336 
554.075759  	93.147552 
559.787880  	92.423967 
565.500002  	92.885730 
571.212123  	92.611524 
576.924244  	92.365284 
582.636365  	92.961461 
588.348487  	92.212717 
594.060608  	92.313422 
599.772729  	92.596134 
605.484850  	91.838527 
611.196971  	92.230715 
616.909093  	91.786165 
622.621214  	91.188757 
628.333335  	91.827244 
634.045456  	90.921146 
639.757578  	90.601015 
645.469699  	90.657471 
651.181820  	89.232703 
656.893941  	89.864670 
662.606062  	89.554817 
668.318184  	87.753641 
674.030305  	89.285827 
679.742426  	88.788969 
685.454547  	88.337115 
691.166669  	89.749632 
696.878790  	87.691635 
702.590911  	88.321179 
708.303032  	87.101084 
714.015154  	74.532614 
719.727275  	67.287173 
725.439396  	73.863890 
731.151517  	81.187493 
736.863638  	89.168310 
742.575760  	94.464099 
748.287881  	93.611338 
754.000002  	94.491825 
759.712123  	95.927769 
765.424245  	95.156405 
771.136366  	95.984492 
776.848487  	96.418915 
782.560608  	96.225427 
788.272730  	97.237913 
793.984851  	97.166816 
799.696972  	97.157730 
805.409093  	97.778215 
811.121214  	97.550727 
816.833336  	97.918133 
822.545457  	98.195971 
828.257578  	98.082381 
833.969699  	98.594062 
839.681821  	98.574377 
845.393942  	98.520833 
851.106063  	98.773354 
856.818184  	98.522664 
862.530305  	98.655454 
868.242427  	98.797348 
873.954548  	98.580365 
879.666669  	98.731767 
885.378790  	98.670629 
891.090912  	98.659131 
896.803033  	98.865170 
902.515154  	98.652017 
908.227275  	98.689222 
913.939397  	98.813219 
919.651518  	98.682210 
925.363639  	98.776776 
931.075760  	98.645946 
936.787881  	98.477300 
942.500003  	98.562964 
948.212124  	98.361477 
953.924245  	98.286339 
959.636366  	98.344045 
965.348488  	98.220345 
971.060609  	98.374422 
976.772730  	98.467773 
982.484851  	98.440604 
988.196973  	98.613850 
993.909094  	98.571368 
999.621215  	98.547901 
1005.333336  	98.615652 
1011.045457  	98.460980 
1016.757579  	98.443638 
1022.469700  	98.389998 
1028.181821  	98.265310 
1033.893942  	98.334904 
1039.606064  	98.197981 
1045.318185  	98.102742 
1051.030306  	98.102170 
1056.742427  	97.875007 
1062.454548  	97.889810 
1068.166670  	97.850026 
1073.878791  	97.685143 
1079.590912  	97.826442 
1085.303033  	97.760892 
1091.015155  	97.849982 
1096.727276  	98.169015 
1102.439397  	98.087142 
1108.151518  	98.183072 
1113.863640  	98.309820 
1119.575761  	98.194166 
1125.287882  	98.295708 
1131.000003  	98.247125 
1136.712124  	98.207543 
1142.424246  	98.360451 
1148.136367  	98.278206 
1153.848488  	98.341026 
1159.560609  	98.477690 
1165.272731  	98.473401 
1170.984852  	98.636998 
1176.696973  	98.623963 
1182.409094  	98.587824 
1188.121215  	98.762199 
1193.833337  	98.686080 
1199.545458  	98.681405 
1205.257579  	98.776543 
1210.969700  	98.648878 
1216.681822  	98.661930 
1222.393943  	98.621436 
1228.106064  	98.451638 
1233.818185  	98.439214 
1239.530307  	98.300561 
1245.242428  	98.214913 
1250.954549  	98.203788 
1256.666670  	98.002995 
1262.378791  	97.976280 
1268.090913  	97.961067 
1273.803034  	97.892166 
1279.515155  	98.011081 
1285.227276  	97.931311 
1290.939398  	97.791401 
1296.651519  	97.660314 
1302.363640  	97.365804 
1308.075761  	97.430871 
1313.787883  	97.607482 
1319.500004  	97.768097 
1325.212125  	98.201441 
1330.924246  	98.177293 
1336.636367  	97.867938 
1342.348489  	97.569491 
1348.060610  	97.056447 
1353.772731  	96.959126 
1359.484852  	96.785730 
1365.196974  	96.150359 
1370.909095  	96.105902 
1376.621216  	96.054268 
1382.333337  	96.606286 
1388.045458  	98.047949 
1393.757580  	97.992714 
1399.469701  	97.700451 
1405.181822  	98.236630 
1410.893943  	97.688514 
1416.606065  	97.676247 
1422.318186  	97.440813 
1428.030307  	95.800164 
1433.742428  	95.156679 
1439.454550  	93.217482 
1445.166671  	91.896687 
1450.878792  	91.324210 
1456.590913  	79.721426 
1462.303034  	70.052801 
1468.015156  	71.438263 
1473.727277  	82.801774 
1479.439398  	94.966177 
1485.151519  	97.628941 
1490.863641  	97.712252 
1496.575762  	97.862484 
1502.287883  	98.426719 
1508.000004  	97.996114 
1513.712126  	98.102459 
1519.424247  	98.536059 
1525.136368  	97.989099 
1530.848489  	98.463136 
1536.560610  	98.663847 
1542.272732  	97.660452 
1547.984853  	98.516213 
1553.696974  	98.614609 
1559.409095  	97.748898 
1565.121217  	98.493830 
1570.833338  	98.439217 
1576.545459  	98.121330 
1582.257580  	98.472755 
1587.969701  	98.315546 
1593.681823  	98.284453 
1599.393944  	98.428318 
1605.106065  	98.254877 
1610.818186  	98.389576 
1616.530308  	98.265623 
1622.242429  	97.844306 
1627.954550  	97.734421 
1633.666671  	97.130592 
1639.378793  	97.603114 
1645.090914  	98.123329 
1650.803035  	97.210049 
1656.515156  	97.508205 
1662.227277  	97.927870 
1667.939399  	97.926580 
1673.651520  	98.512079 
1679.363641  	98.540659 
1685.075762  	98.397520 
1690.787884  	98.886363 
1696.500005  	98.766004 
1702.212126  	98.455456 
1707.924247  	98.907899 
1713.636369  	98.823261 
1719.348490  	98.718965 
1725.060611  	99.087811 
1730.772732  	99.026255 
1736.484853  	98.811089 
1742.196975  	99.036387 
1747.909096  	99.068184 
1753.621217  	99.083067 
1759.333338  	99.299745 
1765.045460  	99.369835 
1770.757581  	99.212549 
1776.469702  	99.254575 
1782.181823  	99.445081 
1787.893944  	99.455137 
1793.606066  	99.348286 
1799.318187  	99.386136 
1805.030308  	99.507212 
1810.742429  	99.587856 
1816.454551  	99.625443 
1822.166672  	99.612785 
1827.878793  	99.490308 
1833.590914  	99.526969 
1839.303036  	99.644932 
1845.015157  	99.541655 
1850.727278  	99.579884 
1856.439399  	99.777702 
1862.151520  	99.660790 
1867.863642  	99.528391 
1873.575763  	99.658547 
1879.287884  	99.668564 
1885.000005  	99.660044 
1890.712127  	99.617755 
1896.424248  	99.522280 
1902.136369  	99.611358 
1907.848490  	99.678053 
1913.560611  	99.663738 
1919.272733  	99.722797 
1924.984854  	99.698774 
1930.696975  	99.774359 
1936.409096  	99.843951 
1942.121218  	99.696791 
1947.833339  	99.856555 
1953.545460  	99.957629 
1959.257581  	99.708393 
1964.969703  	99.812444 
1970.681824  	99.738118 
1976.393945  	99.321652 
1982.106066  	99.328767 
1987.818187  	99.412710 
1993.530309  	99.511573 
1999.242430  	99.764824 
2004.954551  	99.715380 
2010.666672  	99.383644 
2016.378794  	99.134535 
2022.090915  	99.120473 
2027.803036  	99.085683 
2033.515157  	99.149274 
2039.227279  	99.321784 
2044.939400  	99.184518 
2050.651521  	99.024936 
2056.363642  	99.260573 
2062.075763  	99.410803 
2067.787885  	99.305643 
2073.500006  	99.397558 
2079.212127  	99.500341 
2084.924248  	99.502944 
2090.636370  	99.581583 
2096.348491  	99.555032 
2102.060612  	99.488091 
2107.772733  	99.486644 
2113.484854  	99.441432 
2119.196976  	99.582559 
2124.909097  	99.866011 
2130.621218  	99.911603 
2136.333339  	99.814695 
2142.045461  	99.734464 
2147.757582  	99.725453 
2153.469703  	99.755063 
2159.181824  	99.282606 
2164.893946  	98.945260 
2170.606067  	99.366246 
2176.318188  	99.530172 
2182.030309  	99.410126 
2187.742430  	99.262919 
2193.454552  	98.968647 
2199.166673  	99.028443 
2204.878794  	99.284743 
2210.590915  	99.192589 
2216.303037  	99.148196 
2222.015158  	99.143810 
2227.727279  	99.070730 
2233.439400  	99.139437 
2239.151522  	99.085471 
2244.863643  	99.020829 
2250.575764  	99.056334 
2256.287885  	99.889677 
2262.000006  	100.624870 
2267.712128  	100.461762 
2273.424249  	100.888098 
2279.136370  	100.288299 
2284.848491  	99.219405 
2290.560613  	98.769116 
2296.272734  	98.474512 
2301.984855  	98.091340 
2307.696976  	97.844927 
2313.409097  	97.615704 
2319.121219  	97.695177 
2324.833340  	96.587898 
2330.545461  	96.547823 
2336.257582  	98.623246 
2341.969704  	97.808166 
2347.681825  	96.096176 
2353.393946  	98.920761 
2359.106067  	103.283304 
2364.818189  	104.027243 
2370.530310  	102.735505 
2376.242431  	100.576189 
2381.954552  	98.879229 
2387.666673  	99.236915 
2393.378795  	99.223011 
2399.090916  	99.251875 
2404.803037  	99.250211 
2410.515158  	99.079874 
2416.227280  	99.140046 
2421.939401  	99.121644 
2427.651522  	99.114381 
2433.363643  	99.189246 
2439.075765  	99.066242 
2444.787886  	99.120481 
2450.500007  	99.166041 
2456.212128  	99.035600 
2461.924249  	99.147981 
2467.636371  	99.103036 
2473.348492  	98.983260 
2479.060613  	99.140179 
2484.772734  	99.035663 
2490.484856  	98.964975 
2496.196977  	99.096788 
2501.909098  	98.962817 
2507.621219  	98.963149 
2513.333340  	98.982062 
2519.045462  	98.836502 
2524.757583  	98.912155 
2530.469704  	98.829120 
2536.181825  	98.759423 
2541.893947  	98.884394 
2547.606068  	98.680767 
2553.318189  	98.613459 
2559.030310  	98.651683 
2564.742432  	98.453399 
2570.454553  	98.500176 
2576.166674  	98.415851 
2581.878795  	98.219917 
2587.590916  	98.275230 
2593.303038  	98.089362 
2599.015159  	98.025908 
2604.727280  	98.083639 
2610.439401  	97.842076 
2616.151523  	97.824820 
2621.863644  	97.739052 
2627.575765  	97.503898 
2633.287886  	97.542419 
2639.000007  	97.426218 
2644.712129  	97.429067 
2650.424250  	97.578654 
2656.136371  	97.422037 
2661.848492  	97.515810 
2667.560614  	97.651575 
2673.272735  	97.535531 
2678.984856  	97.718621 
2684.696977  	97.733284 
2690.409099  	97.650199 
2696.121220  	97.865652 
2701.833341  	97.709204 
2707.545462  	97.645256 
2713.257583  	97.745318 
2718.969705  	97.456683 
2724.681826  	97.499535 
2730.393947  	97.430961 
2736.106068  	97.141239 
2741.818190  	97.358394 
2747.530311  	97.175267 
2753.242432  	97.039095 
2758.954553  	97.165498 
2764.666675  	96.602853 
2770.378796  	96.531273 
2776.090917  	96.307518 
2781.803038  	95.391123 
2787.515159  	95.259022 
2793.227281  	94.256569 
2798.939402  	93.112510 
2804.651523  	92.773731 
2810.363644  	90.609614 
2816.075766  	89.188099 
2821.787887  	87.092887 
2827.500008  	81.500175 
2833.212129  	76.367677 
2838.924250  	59.434418 
2844.636372  	31.259561 
2850.348493  	31.828009 
2856.060614  	61.530375 
2861.772735  	77.539540 
2867.484857  	80.212790 
2873.196978  	81.451135 
2878.909099  	75.456661 
2884.621220  	68.556724 
2890.333342  	62.022864 
2896.045463  	54.114992 
2901.757584  	49.034067 
2907.469705  	37.602913 
2913.181826  	23.870712 
2918.893948  	29.456855 
2924.606069  	49.165501 
2930.318190  	64.239750 
2936.030311  	75.381322 
2941.742433  	83.959478 
2947.454554  	88.441536 
2953.166675  	90.423567 
2958.878796  	90.767344 
2964.590918  	91.903434 
2970.303039  	93.697674 
2976.015160  	94.528505 
2981.727281  	95.460834 
2987.439402  	96.105050 
2993.151524  	96.330886 
2998.863645  	96.786555 
3004.575766  	96.887013 
3010.287887  	97.114745 
3016.000009  	97.419833 
3021.712130  	97.352387 
3027.424251  	97.546947 
3033.136372  	97.595974 
3038.848493  	97.566903 
3044.560615  	97.786609 
3050.272736  	97.670125 
3055.984857  	97.753439 
3061.696978  	97.918390 
3067.409100  	97.726663 
3073.121221  	97.886388 
3078.833342  	97.905478 
3084.545463  	97.790051 
3090.257585  	98.051702 
3095.969706  	97.963756 
3101.681827  	97.926710 
3107.393948  	98.118281 
3113.106069  	97.986579 
3118.818191  	98.067959 
3124.530312  	98.092386 
3130.242433  	97.940311 
3135.954554  	98.082302 
3141.666676  	97.964552 
3147.378797  	97.874187 
3153.090918  	97.957569 
3158.803039  	97.708116 
3164.515161  	97.722351 
3170.227282  	97.728750 
3175.939403  	97.472876 
3181.651524  	97.579289 
3187.363645  	97.503195 
3193.075767  	97.386572 
3198.787888  	97.563054 
3204.500009  	97.431229 
3210.212130  	97.502269 
3215.924252  	97.654837 
3221.636373  	97.438171 
3227.348494  	97.545409 
3233.060615  	97.566098 
3238.772736  	97.429747 
3244.484858  	97.620246 
3250.196979  	97.539132 
3255.909100  	97.486961 
3261.621221  	97.588894 
3267.333343  	97.396498 
3273.045464  	97.451848 
3278.757585  	97.512883 
3284.469706  	97.387090 
3290.181828  	97.491961 
3295.893949  	97.386017 
3301.606070  	97.288263 
3307.318191  	97.374168 
3313.030312  	97.249325 
3318.742434  	97.314855 
3324.454555  	97.306349 
3330.166676  	97.088863 
3335.878797  	97.163710 
3341.590919  	97.004454 
3347.303040  	96.772162 
3353.015161  	96.793511 
3358.727282  	96.580615 
3364.439403  	96.616715 
3370.151525  	96.824044 
3375.863646  	96.785456 
3381.575767  	97.071766 
3387.287888  	97.226498 
3393.000010  	97.087559 
3398.712131  	97.273064 
3404.424252  	97.304597 
3410.136373  	97.241332 
3415.848495  	97.321477 
3421.560616  	97.240121 
3427.272737  	97.329049 
3432.984858  	97.404724 
3438.696979  	97.311408 
3444.409101  	97.409848 
3450.121222  	97.386291 
3455.833343  	97.374762 
3461.545464  	97.461419 
3467.257586  	97.371127 
3472.969707  	97.508647 
3478.681828  	97.547375 
3484.393949  	97.374376 
3490.106071  	97.600725 
3495.818192  	97.631236 
3501.530313  	97.466365 
3507.242434  	97.589830 
3512.954555  	97.567141 
3518.666677  	97.657398 
3524.378798  	97.740482 
3530.090919  	97.521306 
3535.803040  	97.740637 
3541.515162  	97.859983 
3547.227283  	97.737780 
3552.939404  	97.843712 
3558.651525  	97.902344 
3564.363646  	97.818772 
3570.075768  	97.812441 
3575.787889  	97.797677 
3581.500010  	97.955474 
3587.212131  	97.989009 
3592.924253  	97.742590 
3598.636374  	97.723044 
3604.348495  	97.865481 
3610.060616  	97.990609 
3615.772738  	97.910632 
3621.484859  	97.835740 
3627.196980  	97.993195 
3632.909101  	97.890992 
3638.621222  	97.886521 
3644.333344  	98.360794 
3650.045465  	98.175380 
3655.757586  	97.821402 
3661.469707  	98.153529 
3667.181829  	98.430688 
3672.893950  	98.098485 
3678.606071  	98.023195 
3684.318192  	98.148518 
3690.030314  	98.129772 
3695.742435  	97.891160 
3701.454556  	97.955549 
3707.166677  	98.223291 
3712.878798  	97.969332 
3718.590920  	97.877342 
3724.303041  	97.917354 
3730.015162  	97.812072 
3735.727283  	98.046816 
3741.439405  	98.260915 
3747.151526  	98.108826 
3752.863647  	97.965295 
3758.575768  	98.016835 
3764.287889  	98.152674 
3770.000011  	98.049309 
3775.712132  	97.983918 
3781.424253  	98.115752 
3787.136374  	97.925696 
3792.848496  	98.116500 
3798.560617  	98.370036 
3804.272738  	97.758582 
3809.984859  	97.992666 
3815.696981  	98.330555 
3821.409102  	97.595016 
3827.121223  	97.897633 
3832.833344  	98.213168 
3838.545465  	97.557460 
3844.257587  	97.917006 
3849.969708  	98.106891 
3855.681829  	97.588650 
3861.393950  	97.923979 
3867.106072  	97.833562 
3872.818193  	97.516768 
3878.530314  	97.805982 
3884.242435  	97.622012 
3889.954557  	97.605795 
3895.666678  	98.006953 
3901.378799  	97.631737 
3907.090920  	97.592949 
3912.803041  	97.846345 
3918.515163  	97.745742 
3924.227284  	97.732317 
3929.939405  	97.712252 
3935.651526  	97.697797 
3941.363648  	97.778914 
3947.075769  	97.641279 
3952.787890  	97.631780 
3958.500011  	97.702822 
3964.212132  	97.559538 
3969.924254  	97.592595 
3975.636375  	97.614855 
3981.348496  	97.554617 
3987.060617  	97.677164 
3992.772739  	97.575663 
3998.484860  	97.498629 