##TITLE=No Description
##DATA TYPE=INFRARED SPECTRUM
##XUNITS=1/CM
##YUNITS=%T
399.848486  	105.894713 
405.560607  	90.388513 
411.272728  	103.875150 
416.984850  	97.170506 
422.696971  	93.251058 
428.409092  	101.731548 
434.121213  	94.907873 
439.833335  	96.119762 
445.545456  	99.388109 
451.257577  	94.633307 
456.969698  	97.763528 
462.681819  	97.589628 
468.393941  	94.769925 
474.106062  	98.282324 
479.818183  	96.499808 
485.530304  	96.468423 
491.242426  	98.084648 
496.954547  	95.732663 
502.666668  	97.291753 
508.378789  	97.903021 
514.090911  	96.502038 
519.803032  	97.998671 
525.515153  	96.913272 
531.227274  	96.657189 
536.939395  	97.888034 
542.651517  	96.448681 
548.363638  	96.962662 
554.075759  	97.500093 
559.787880  	96.601952 
565.500002  	97.555327 
571.212123  	96.982374 
576.924244  	96.659976 
582.636365  	97.555690 
588.348487  	96.454727 
594.060608  	96.989751 
599.772729  	97.457049 
605.484850  	96.407380 
611.196971  	97.373926 
616.909093  	96.910783 
622.621214  	96.418618 
628.333335  	97.667835 
634.045456  	96.417541 
639.757578  	96.556682 
645.469699  	97.319762 
651.181820  	95.628473 
656.893941  	96.788354 
662.606062  	96.579903 
668.318184  	94.664471 
674.030305  	96.882638 
679.742426  	95.543983 
685.454547  	94.933529 
691.166669  	96.767520 
696.878790  	93.358789 
702.590911  	94.449282 
708.303032  	92.412458 
714.015154  	76.156954 
719.727275  	70.260190 
725.439396  	78.306377 
731.151517  	81.769230 
736.863638  	90.122857 
742.575760  	98.091876 
748.287881  	95.826210 
754.000002  	96.262523 
759.712123  	98.079411 
765.424245  	96.388227 
771.136366  	97.358600 
776.848487  	97.555367 
782.560608  	96.602079 
788.272730  	97.735711 
793.984851  	97.247723 
799.696972  	96.979965 
805.409093  	97.756154 
811.121214  	97.156080 
816.833336  	97.567504 
822.545457  	97.810278 
828.257578  	97.502745 
833.969699  	98.285091 
839.681821  	98.112856 
845.393942  	97.921521 
851.106063  	98.315124 
856.818184  	97.875293 
862.530305  	98.081953 
868.242427  	98.280910 
873.954548  	97.924775 
879.666669  	98.297267 
885.378790  	98.176084 
891.090912  	98.007896 
896.803033  	98.283221 
902.515154  	97.541394 
908.227275  	97.156005 
913.939397  	97.707448 
919.651518  	97.947306 
925.363639  	98.057310 
931.075760  	97.914294 
936.787881  	97.758409 
942.500003  	97.856369 
948.212124  	97.657827 
953.924245  	97.566117 
959.636366  	97.532051 
965.348488  	97.309927 
971.060609  	97.419080 
976.772730  	97.448898 
982.484851  	97.343499 
988.196973  	97.361056 
993.909094  	97.262962 
999.621215  	97.430968 
1005.333336  	97.478879 
1011.045457  	97.131053 
1016.757579  	97.087775 
1022.469700  	96.904390 
1028.181821  	96.632780 
1033.893942  	96.688202 
1039.606064  	96.455967 
1045.318185  	96.323090 
1051.030306  	96.290947 
1056.742427  	95.984211 
1062.454548  	96.074736 
1068.166670  	96.068186 
1073.878791  	95.867252 
1079.590912  	95.930559 
1085.303033  	95.747999 
1091.015155  	95.921862 
1096.727276  	96.245210 
1102.439397  	96.097259 
1108.151518  	96.317516 
1113.863640  	96.416550 
1119.575761  	96.312761 
1125.287882  	96.606131 
1131.000003  	96.607538 
1136.712124  	96.606636 
1142.424246  	96.683061 
1148.136367  	96.420901 
1153.848488  	96.413466 
1159.560609  	96.362601 
1165.272731  	96.298264 
1170.984852  	96.668747 
1176.696973  	96.812602 
1182.409094  	97.003326 
1188.121215  	97.311524 
1193.833337  	97.257887 
1199.545458  	97.431184 
1205.257579  	97.501209 
1210.969700  	97.323564 
1216.681822  	97.474593 
1222.393943  	97.318881 
1228.106064  	97.110207 
1233.818185  	97.176514 
1239.530307  	96.878554 
1245.242428  	96.820782 
1250.954549  	96.845103 
1256.666670  	96.495156 
1262.378791  	96.562969 
1268.090913  	96.694784 
1273.803034  	96.777011 
1279.515155  	97.013541 
1285.227276  	96.826749 
1290.939398  	96.763109 
1296.651519  	96.739811 
1302.363640  	96.401404 
1308.075761  	96.601648 
1313.787883  	96.741335 
1319.500004  	96.782200 
1325.212125  	97.267403 
1330.924246  	97.130609 
1336.636367  	96.908412 
1342.348489  	96.813144 
1348.060610  	96.203719 
1353.772731  	96.240743 
1359.484852  	96.128125 
1365.196974  	95.378655 
1370.909095  	95.819868 
1376.621216  	96.279832 
1382.333337  	96.551960 
1388.045458  	97.140955 
1393.757580  	96.661660 
1399.469701  	96.770960 
1405.181822  	97.118763 
1410.893943  	96.435269 
1416.606065  	96.847590 
1422.318186  	96.359060 
1428.030307  	95.225499 
1433.742428  	95.363634 
1439.454550  	92.915946 
1445.166671  	92.636848 
1450.878792  	93.088282 
1456.590913  	80.341144 
1462.303034  	72.907842 
1468.015156  	76.186251 
1473.727277  	83.376047 
1479.439398  	93.429402 
1485.151519  	97.615661 
1490.863641  	96.946154 
1496.575762  	96.755453 
1502.287883  	98.101657 
1508.000004  	96.883157 
1513.712126  	97.197442 
1519.424247  	98.010028 
1525.136368  	96.761056 
1530.848489  	97.546249 
1536.560610  	97.763266 
1542.272732  	96.190204 
1547.984853  	97.418720 
1553.696974  	97.360407 
1559.409095  	96.285625 
1565.121217  	97.142688 
1570.833338  	96.821999 
1576.545459  	96.526463 
1582.257580  	96.726080 
1587.969701  	96.319012 
1593.681823  	96.534421 
1599.393944  	96.604848 
1605.106065  	96.403181 
1610.818186  	96.855448 
1616.530308  	96.572637 
1622.242429  	96.364896 
1627.954550  	96.834683 
1633.666671  	96.288086 
1639.378793  	96.289150 
1645.090914  	96.650472 
1650.803035  	96.084467 
1656.515156  	96.686590 
1662.227277  	97.021090 
1667.939399  	96.909365 
1673.651520  	97.232843 
1679.363641  	97.318699 
1685.075762  	97.381904 
1690.787884  	97.716700 
1696.500005  	97.696106 
1702.212126  	97.457697 
1707.924247  	97.692427 
1713.636369  	97.733630 
1719.348490  	97.495951 
1725.060611  	97.722059 
1730.772732  	97.601782 
1736.484853  	96.343113 
1742.196975  	96.127213 
1747.909096  	96.278687 
1753.621217  	96.932972 
1759.333338  	97.973765 
1765.045460  	98.595386 
1770.757581  	98.449573 
1776.469702  	98.623051 
1782.181823  	98.872012 
1787.893944  	98.767170 
1793.606066  	98.797571 
1799.318187  	98.763520 
1805.030308  	98.842347 
1810.742429  	98.990961 
1816.454551  	98.843894 
1822.166672  	98.924772 
1827.878793  	98.894965 
1833.590914  	98.770892 
1839.303036  	99.109188 
1845.015157  	98.977520 
1850.727278  	98.842415 
1856.439399  	99.214262 
1862.151520  	98.996255 
1867.863642  	98.895380 
1873.575763  	99.128024 
1879.287884  	98.931782 
1885.000005  	99.068825 
1890.712127  	98.980697 
1896.424248  	98.702154 
1902.136369  	99.045153 
1907.848490  	98.973583 
1913.560611  	98.910845 
1919.272733  	99.149287 
1924.984854  	98.827453 
1930.696975  	99.094838 
1936.409096  	99.249335 
1942.121218  	98.708366 
1947.833339  	99.191457 
1953.545460  	99.157425 
1959.257581  	98.731205 
1964.969703  	99.230432 
1970.681824  	98.615656 
1976.393945  	98.596055 
1982.106066  	98.987833 
1987.818187  	98.546124 
1993.530309  	99.083843 
1999.242430  	99.145741 
2004.954551  	98.682984 
2010.666672  	98.972489 
2016.378794  	98.342920 
2022.090915  	98.345746 
2027.803036  	98.835292 
2033.515157  	98.422799 
2039.227279  	98.828344 
2044.939400  	98.704420 
2050.651521  	98.514112 
2056.363642  	99.127981 
2062.075763  	98.979203 
2067.787885  	98.845102 
2073.500006  	99.122243 
2079.212127  	98.899170 
2084.924248  	98.989434 
2090.636370  	99.104031 
2096.348491  	98.899460 
2102.060612  	99.014262 
2107.772733  	98.935172 
2113.484854  	98.905579 
2119.196976  	99.128606 
2124.909097  	99.046169 
2130.621218  	99.173248 
2136.333339  	99.160991 
2142.045461  	98.664553 
2147.757582  	99.016107 
2153.469703  	98.822199 
2159.181824  	98.122095 
2164.893946  	98.876701 
2170.606067  	98.897221 
2176.318188  	98.932146 
2182.030309  	99.147622 
2187.742430  	98.721368 
2193.454552  	98.871613 
2199.166673  	98.970810 
2204.878794  	98.755232 
2210.590915  	98.905290 
2216.303037  	98.797541 
2222.015158  	98.735423 
2227.727279  	98.816869 
2233.439400  	98.685080 
2239.151522  	98.783690 
2244.863643  	98.776854 
2250.575764  	98.673689 
2256.287885  	99.195312 
2262.000006  	99.532886 
2267.712128  	99.321008 
2273.424249  	99.711261 
2279.136370  	99.225245 
2284.848491  	98.715694 
2290.560613  	98.564199 
2296.272734  	98.332155 
2301.984855  	98.093285 
2307.696976  	97.895882 
2313.409097  	97.745354 
2319.121219  	97.866747 
2324.833340  	97.059249 
2330.545461  	97.056058 
2336.257582  	98.425293 
2341.969704  	97.758049 
2347.681825  	96.773698 
2353.393946  	98.636549 
2359.106067  	101.169028 
2364.818189  	101.724199 
2370.530310  	101.070763 
2376.242431  	99.711479 
2381.954552  	98.639917 
2387.666673  	98.808336 
2393.378795  	98.765096 
2399.090916  	98.750485 
2404.803037  	98.689866 
2410.515158  	98.604988 
2416.227280  	98.653904 
2421.939401  	98.662960 
2427.651522  	98.695324 
2433.363643  	98.675517 
2439.075765  	98.580509 
2444.787886  	98.614975 
2450.500007  	98.616057 
2456.212128  	98.617977 
2461.924249  	98.677137 
2467.636371  	98.551209 
2473.348492  	98.511198 
2479.060613  	98.606884 
2484.772734  	98.484229 
2490.484856  	98.459716 
2496.196977  	98.553835 
2501.909098  	98.450562 
2507.621219  	98.434279 
2513.333340  	98.468152 
2519.045462  	98.385939 
2524.757583  	98.340091 
2530.469704  	98.250850 
2536.181825  	98.280198 
2541.893947  	98.365286 
2547.606068  	98.177225 
2553.318189  	98.107120 
2559.030310  	98.134153 
2564.742432  	97.981915 
2570.454553  	97.973241 
2576.166674  	97.928586 
2581.878795  	97.809134 
2587.590916  	97.826723 
2593.303038  	97.680845 
2599.015159  	97.589576 
2604.727280  	97.596937 
2610.439401  	97.413890 
2616.151523  	97.359411 
2621.863644  	97.263568 
2627.575765  	97.034655 
2633.287886  	97.011259 
2639.000007  	96.952366 
2644.712129  	96.956198 
2650.424250  	97.036309 
2656.136371  	96.898696 
2661.848492  	96.925976 
2667.560614  	97.026178 
2673.272735  	96.973441 
2678.984856  	97.099913 
2684.696977  	97.080659 
2690.409099  	96.988441 
2696.121220  	97.110425 
2701.833341  	96.924393 
2707.545462  	96.808921 
2713.257583  	96.868155 
2718.969705  	96.624530 
2724.681826  	96.611086 
2730.393947  	96.496660 
2736.106068  	96.193783 
2741.818190  	96.333602 
2747.530311  	96.132923 
2753.242432  	95.922669 
2758.954553  	95.978722 
2764.666675  	95.447723 
2770.378796  	95.288023 
2776.090917  	95.034988 
2781.803038  	94.165573 
2787.515159  	93.995272 
2793.227281  	93.120914 
2798.939402  	92.117583 
2804.651523  	91.866168 
2810.363644  	89.904464 
2816.075766  	88.648843 
2821.787887  	87.027377 
2827.500008  	82.181970 
2833.212129  	78.428860 
2838.924250  	65.109590 
2844.636372  	40.886281 
2850.348493  	41.770127 
2856.060614  	68.918448 
2861.772735  	82.428758 
2867.484857  	83.798458 
2873.196978  	84.790806 
2878.909099  	78.508538 
2884.621220  	72.008743 
2890.333342  	67.293130 
2896.045463  	60.797912 
2901.757584  	57.195945 
2907.469705  	48.005150 
2913.181826  	34.581163 
2918.893948  	38.701442 
2924.606069  	57.223480 
2930.318190  	70.795610 
2936.030311  	79.930626 
2941.742433  	86.833992 
2947.454554  	90.228224 
2953.166675  	92.143357 
2958.878796  	92.988471 
2964.590918  	93.857419 
2970.303039  	94.734415 
2976.015160  	94.864629 
2981.727281  	95.421416 
2987.439402  	95.841915 
2993.151524  	95.947935 
2998.863645  	96.305011 
3004.575766  	96.307864 
3010.287887  	96.521250 
3016.000009  	96.785066 
3021.712130  	96.611045 
3027.424251  	96.795483 
3033.136372  	96.826826 
3038.848493  	96.730356 
3044.560615  	96.954702 
3050.272736  	96.792195 
3055.984857  	96.804991 
3061.696978  	96.972452 
3067.409100  	96.744025 
3073.121221  	96.864113 
3078.833342  	96.862114 
3084.545463  	96.699184 
3090.257585  	96.946438 
3095.969706  	96.869432 
3101.681827  	96.864798 
3107.393948  	97.044874 
3113.106069  	96.832808 
3118.818191  	96.923209 
3124.530312  	96.968537 
3130.242433  	96.773914 
3135.954554  	96.927913 
3141.666676  	96.791183 
3147.378797  	96.671433 
3153.090918  	96.798383 
3158.803039  	96.545995 
3164.515161  	96.551774 
3170.227282  	96.586358 
3175.939403  	96.355517 
3181.651524  	96.497686 
3187.363645  	96.383319 
3193.075767  	96.203412 
3198.787888  	96.330374 
3204.500009  	96.086689 
3210.212130  	96.086717 
3215.924252  	96.176761 
3221.636373  	95.881954 
3227.348494  	96.005663 
3233.060615  	95.990501 
3238.772736  	95.778189 
3244.484858  	95.949236 
3250.196979  	95.803996 
3255.909100  	95.744709 
3261.621221  	95.859285 
3267.333343  	95.625791 
3273.045464  	95.717864 
3278.757585  	95.728727 
3284.469706  	95.529383 
3290.181828  	95.726645 
3295.893949  	95.623237 
3301.606070  	95.512278 
3307.318191  	95.665126 
3313.030312  	95.475433 
3318.742434  	95.538469 
3324.454555  	95.607198 
3330.166676  	95.379036 
3335.878797  	95.518951 
3341.590919  	95.446836 
3347.303040  	95.309685 
3353.015161  	95.511921 
3358.727282  	95.349665 
3364.439403  	95.333917 
3370.151525  	95.475214 
3375.863646  	95.308385 
3381.575767  	95.483084 
3387.287888  	95.515396 
3393.000010  	95.333565 
3398.712131  	95.570978 
3404.424252  	95.538075 
3410.136373  	95.464279 
3415.848495  	95.592700 
3421.560616  	95.429490 
3427.272737  	95.531507 
3432.984858  	95.654824 
3438.696979  	95.536074 
3444.409101  	95.700142 
3450.121222  	95.673312 
3455.833343  	95.657525 
3461.545464  	95.864847 
3467.257586  	95.758923 
3472.969707  	95.862681 
3478.681828  	95.977315 
3484.393949  	95.839894 
3490.106071  	96.108842 
3495.818192  	96.160388 
3501.530313  	96.030845 
3507.242434  	96.259960 
3512.954555  	96.251105 
3518.666677  	96.370673 
3524.378798  	96.526244 
3530.090919  	96.303716 
3535.803040  	96.589352 
3541.515162  	96.785290 
3547.227283  	96.639491 
3552.939404  	96.777021 
3558.651525  	96.901765 
3564.363646  	96.933341 
3570.075768  	96.989644 
3575.787889  	96.961001 
3581.500010  	97.190923 
3587.212131  	97.239763 
3592.924253  	97.010792 
3598.636374  	97.074885 
3604.348495  	97.193887 
3610.060616  	97.347568 
3615.772738  	97.312038 
3621.484859  	97.244716 
3627.196980  	97.611994 
3632.909101  	97.470611 
3638.621222  	97.245397 
3644.333344  	97.783855 
3650.045465  	97.677250 
3655.757586  	97.254055 
3661.469707  	97.666249 
3667.181829  	97.923279 
3672.893950  	97.623190 
3678.606071  	97.531657 
3684.318192  	97.699209 
3690.030314  	97.796338 
3695.742435  	97.499718 
3701.454556  	97.511354 
3707.166677  	97.787315 
3712.878798  	97.504992 
3718.590920  	97.454458 
3724.303041  	97.628967 
3730.015162  	97.527552 
3735.727283  	97.604642 
3741.439405  	97.739539 
3747.151526  	97.720963 
3752.863647  	97.692235 
3758.575768  	97.599565 
3764.287889  	97.723899 
3770.000011  	97.677540 
3775.712132  	97.497287 
3781.424253  	97.686185 
3787.136374  	97.554256 
3792.848496  	97.521555 
3798.560617  	97.954203 
3804.272738  	97.303638 
3809.984859  	97.383770 
3815.696981  	98.007621 
3821.409102  	97.128283 
3827.121223  	97.245021 
3832.833344  	97.864311 
3838.545465  	97.087214 
3844.257587  	97.323755 
3849.969708  	97.784626 
3855.681829  	97.113740 
3861.393950  	97.368800 
3867.106072  	97.459162 
3872.818193  	97.033037 
3878.530314  	97.342871 
3884.242435  	97.258766 
3889.954557  	97.065111 
3895.666678  	97.493893 
3901.378799  	97.239777 
3907.090920  	97.103347 
3912.803041  	97.399132 
3918.515163  	97.321963 
3924.227284  	97.231068 
3929.939405  	97.214040 
3935.651526  	97.199858 
3941.363648  	97.252871 
3947.075769  	97.125415 
3952.787890  	97.115275 
3958.500011  	97.204469 
3964.212132  	97.062100 
3969.924254  	97.053350 
3975.636375  	97.062888 
3981.348496  	97.019157 
3987.060617  	97.129915 
3992.772739  	97.012762 
3998.484860  	96.993670 