##TITLE=No Description
##DATA TYPE=INFRARED SPECTRUM
##XUNITS=1/CM
##YUNITS=%T
399.848486  	73.052764 
405.560607  	74.019854 
411.272728  	73.313460 
416.984850  	74.591944 
422.696971  	68.026153 
428.409092  	68.577671 
434.121213  	67.447441 
439.833335  	67.046161 
445.545456  	72.890458 
451.257577  	74.695497 
456.969698  	73.636393 
462.681819  	74.307023 
468.393941  	73.084590 
474.106062  	73.431994 
479.818183  	73.372963 
485.530304  	71.258495 
491.242426  	70.778343 
496.954547  	67.825207 
502.666668  	65.756242 
508.378789  	70.438061 
514.090911  	73.607073 
519.803032  	73.463533 
525.515153  	74.385099 
531.227274  	75.356919 
536.939395  	76.947540 
542.651517  	78.127842 
548.363638  	78.004599 
554.075759  	78.694634 
559.787880  	78.812812 
565.500002  	78.483699 
571.212123  	78.781808 
576.924244  	78.505279 
582.636365  	78.767069 
588.348487  	78.810977 
594.060608  	77.883982 
599.772729  	77.999787 
605.484850  	77.592372 
611.196971  	76.642726 
616.909093  	76.869170 
622.621214  	75.787359 
628.333335  	73.877815 
634.045456  	73.857027 
639.757578  	74.528531 
645.469699  	74.193573 
651.181820  	72.865061 
656.893941  	71.798141 
662.606062  	71.139632 
668.318184  	69.073019 
674.030305  	66.663702 
679.742426  	64.848390 
685.454547  	62.899482 
691.166669  	60.751861 
696.878790  	55.212753 
702.590911  	47.585304 
708.303032  	42.211312 
714.015154  	34.730775 
719.727275  	26.162306 
725.439396  	28.376538 
731.151517  	44.697516 
736.863638  	67.320193 
742.575760  	82.550575 
748.287881  	86.643845 
754.000002  	85.472720 
759.712123  	84.400811 
765.424245  	83.301516 
771.136366  	81.078594 
776.848487  	79.592562 
782.560608  	78.034047 
788.272730  	74.593456 
793.984851  	74.195949 
799.696972  	77.587463 
805.409093  	77.758019 
811.121214  	76.412098 
816.833336  	76.431727 
822.545457  	75.402470 
828.257578  	74.455452 
833.969699  	72.708439 
839.681821  	69.802343 
845.393942  	68.890655 
851.106063  	68.964204 
856.818184  	70.480356 
862.530305  	69.145029 
868.242427  	59.278776 
873.954548  	56.396301 
879.666669  	67.740807 
885.378790  	74.911389 
891.090912  	74.745662 
896.803033  	75.345880 
902.515154  	75.911509 
908.227275  	77.884299 
913.939397  	79.605281 
919.651518  	78.563375 
925.363639  	78.283968 
931.075760  	77.714738 
936.787881  	76.471816 
942.500003  	76.488878 
948.212124  	75.072627 
953.924245  	73.279259 
959.636366  	71.395775 
965.348488  	67.175937 
971.060609  	65.615106 
976.772730  	67.237171 
982.484851  	68.094417 
988.196973  	68.905579 
993.909094  	67.227704 
999.621215  	64.608329 
1005.333336  	62.040987 
1011.045457  	50.933679 
1016.757579  	42.021726 
1022.469700  	52.090518 
1028.181821  	63.150039 
1033.893942  	60.374528 
1039.606064  	56.630535 
1045.318185  	56.689776 
1051.030306  	56.277331 
1056.742427  	55.777863 
1062.454548  	53.120444 
1068.166670  	48.177391 
1073.878791  	42.985611 
1079.590912  	37.352559 
1085.303033  	33.562388 
1091.015155  	32.136440 
1096.727276  	32.092210 
1102.439397  	35.928058 
1108.151518  	41.766557 
1113.863640  	43.476258 
1119.575761  	43.925116 
1125.287882  	49.177092 
1131.000003  	57.125359 
1136.712124  	64.509573 
1142.424246  	70.921731 
1148.136367  	75.797493 
1153.848488  	79.237723 
1159.560609  	81.263719 
1165.272731  	80.760825 
1170.984852  	78.012080 
1176.696973  	76.594463 
1182.409094  	77.700276 
1188.121215  	77.091862 
1193.833337  	73.357111 
1199.545458  	68.935178 
1205.257579  	64.124605 
1210.969700  	58.381957 
1216.681822  	52.100143 
1222.393943  	45.791933 
1228.106064  	40.420198 
1233.818185  	35.852633 
1239.530307  	32.648543 
1245.242428  	33.960124 
1250.954549  	37.473595 
1256.666670  	39.174407 
1262.378791  	42.284983 
1268.090913  	48.021407 
1273.803034  	53.719739 
1279.515155  	58.038323 
1285.227276  	60.812942 
1290.939398  	65.251435 
1296.651519  	71.400820 
1302.363640  	75.984616 
1308.075761  	79.864443 
1313.787883  	82.438053 
1319.500004  	84.222554 
1325.212125  	86.686109 
1330.924246  	82.656795 
1336.636367  	71.814742 
1342.348489  	71.908848 
1348.060610  	82.757884 
1353.772731  	87.754073 
1359.484852  	87.050572 
1365.196974  	85.533873 
1370.909095  	83.187397 
1376.621216  	83.783870 
1382.333337  	85.957481 
1388.045458  	84.820598 
1393.757580  	84.531302 
1399.469701  	80.840161 
1405.181822  	70.746377 
1410.893943  	70.467081 
1416.606065  	82.215029 
1422.318186  	89.376586 
1428.030307  	88.174290 
1433.742428  	87.624306 
1439.454550  	85.286666 
1445.166671  	84.725406 
1450.878792  	84.510115 
1456.590913  	83.272408 
1462.303034  	85.961788 
1468.015156  	86.488380 
1473.727277  	86.928543 
1479.439398  	90.229742 
1485.151519  	91.512041 
1490.863641  	93.504566 
1496.575762  	92.361544 
1502.287883  	87.438047 
1508.000004  	87.678987 
1513.712126  	92.796881 
1519.424247  	92.281156 
1525.136368  	92.087914 
1530.848489  	92.454391 
1536.560610  	92.151784 
1542.272732  	92.529857 
1547.984853  	91.698623 
1553.696974  	91.682053 
1559.409095  	91.331775 
1565.121217  	90.185854 
1570.833338  	89.417312 
1576.545459  	86.605722 
1582.257580  	87.231664 
1587.969701  	89.880416 
1593.681823  	89.417454 
1599.393944  	88.807085 
1605.106065  	88.581225 
1610.818186  	86.270094 
1616.530308  	86.840223 
1622.242429  	87.529893 
1627.954550  	85.846119 
1633.666671  	86.691083 
1639.378793  	85.056866 
1645.090914  	83.952251 
1650.803035  	85.126153 
1656.515156  	81.475426 
1662.227277  	81.211901 
1667.939399  	79.627102 
1673.651520  	74.845306 
1679.363641  	74.720211 
1685.075762  	69.842851 
1690.787884  	65.281292 
1696.500005  	61.900820 
1702.212126  	44.871518 
1707.924247  	39.269177 
1713.636369  	33.998009 
1719.348490  	39.858677 
1725.060611  	49.978957 
1730.772732  	56.165919 
1736.484853  	71.205693 
1742.196975  	78.398183 
1747.909096  	87.851115 
1753.621217  	93.116676 
1759.333338  	91.885757 
1765.045460  	95.500683 
1770.757581  	94.691998 
1776.469702  	94.195370 
1782.181823  	96.518382 
1787.893944  	94.854345 
1793.606066  	95.655139 
1799.318187  	96.454515 
1805.030308  	95.030145 
1810.742429  	96.579841 
1816.454551  	96.080341 
1822.166672  	95.388216 
1827.878793  	97.124939 
1833.590914  	95.813817 
1839.303036  	96.544016 
1845.015157  	97.637403 
1850.727278  	96.087909 
1856.439399  	97.692484 
1862.151520  	97.578349 
1867.863642  	96.530154 
1873.575763  	98.308454 
1879.287884  	97.059740 
1885.000005  	97.229639 
1890.712127  	98.431066 
1896.424248  	96.638813 
1902.136369  	97.897520 
1907.848490  	97.925980 
1913.560611  	96.529135 
1919.272733  	98.482536 
1924.984854  	96.991002 
1930.696975  	96.618138 
1936.409096  	98.387078 
1942.121218  	95.716969 
1947.833339  	97.039210 
1953.545460  	97.748142 
1959.257581  	95.049582 
1964.969703  	98.787119 
1970.681824  	97.218376 
1976.393945  	95.806014 
1982.106066  	99.339772 
1987.818187  	96.111187 
1993.530309  	97.520894 
1999.242430  	98.993560 
2004.954551  	95.983919 
2010.666672  	99.328397 
2016.378794  	98.026785 
2022.090915  	96.286541 
2027.803036  	100.404336 
2033.515157  	97.048301 
2039.227279  	97.676143 
2044.939400  	99.110845 
2050.651521  	96.108781 
2056.363642  	97.828022 
2062.075763  	97.820271 
2067.787885  	96.415468 
2073.500006  	97.866015 
2079.212127  	96.839648 
2084.924248  	96.707398 
2090.636370  	97.639434 
2096.348491  	96.349566 
2102.060612  	96.942387 
2107.772733  	97.088308 
2113.484854  	96.227532 
2119.196976  	97.392923 
2124.909097  	97.001427 
2130.621218  	96.844464 
2136.333339  	98.249457 
2142.045461  	96.659113 
2147.757582  	97.758537 
2153.469703  	98.848003 
2159.181824  	95.865447 
2164.893946  	98.603748 
2170.606067  	97.976182 
2176.318188  	97.084288 
2182.030309  	99.011734 
2187.742430  	97.009068 
2193.454552  	97.298266 
2199.166673  	98.151413 
2204.878794  	96.568127 
2210.590915  	97.587172 
2216.303037  	97.281873 
2222.015158  	96.394241 
2227.727279  	97.415381 
2233.439400  	96.559773 
2239.151522  	96.666149 
2244.863643  	97.203054 
2250.575764  	96.145929 
2256.287885  	96.537905 
2262.000006  	96.533160 
2267.712128  	96.123853 
2273.424249  	96.562967 
2279.136370  	96.269550 
2284.848491  	96.138744 
2290.560613  	96.385644 
2296.272734  	96.153565 
2301.984855  	96.370467 
2307.696976  	96.392677 
2313.409097  	95.925987 
2319.121219  	96.143497 
2324.833340  	95.791197 
2330.545461  	95.739963 
2336.257582  	96.229674 
2341.969704  	95.634107 
2347.681825  	95.797551 
2353.393946  	96.155613 
2359.106067  	95.423426 
2364.818189  	95.907678 
2370.530310  	96.015727 
2376.242431  	95.744808 
2381.954552  	96.159571 
2387.666673  	96.067240 
2393.378795  	96.021619 
2399.090916  	96.231735 
2404.803037  	95.944717 
2410.515158  	96.122148 
2416.227280  	96.166715 
2421.939401  	95.904342 
2427.651522  	96.236600 
2433.363643  	96.085318 
2439.075765  	96.007891 
2444.787886  	96.291638 
2450.500007  	95.949368 
2456.212128  	96.090312 
2461.924249  	96.216887 
2467.636371  	95.844853 
2473.348492  	96.090888 
2479.060613  	95.970197 
2484.772734  	95.696599 
2490.484856  	95.963570 
2496.196977  	95.722266 
2501.909098  	95.702084 
2507.621219  	95.831456 
2513.333340  	95.509227 
2519.045462  	95.684812 
2524.757583  	95.606471 
2530.469704  	95.328037 
2536.181825  	95.594488 
2541.893947  	95.413618 
2547.606068  	95.348198 
2553.318189  	95.507323 
2559.030310  	95.200955 
2564.742432  	95.301540 
2570.454553  	95.303847 
2576.166674  	95.064949 
2581.878795  	95.282335 
2587.590916  	95.128974 
2593.303038  	95.028758 
2599.015159  	95.255941 
2604.727280  	95.082422 
2610.439401  	95.121036 
2616.151523  	95.146567 
2621.863644  	94.924958 
2627.575765  	95.050492 
2633.287886  	95.012688 
2639.000007  	94.925079 
2644.712129  	95.055533 
2650.424250  	94.946060 
2656.136371  	94.950243 
2661.848492  	95.019970 
2667.560614  	94.881077 
2673.272735  	94.909705 
2678.984856  	94.887320 
2684.696977  	94.780532 
2690.409099  	94.819855 
2696.121220  	94.706155 
2701.833341  	94.672977 
2707.545462  	94.717586 
2713.257583  	94.581470 
2718.969705  	94.600193 
2724.681826  	94.552887 
2730.393947  	94.412397 
2736.106068  	94.476347 
2741.818190  	94.384619 
2747.530311  	94.318142 
2753.242432  	94.368720 
2758.954553  	94.236209 
2764.666675  	94.245520 
2770.378796  	94.210306 
2776.090917  	94.026539 
2781.803038  	94.062495 
2787.515159  	93.960716 
2793.227281  	93.806344 
2798.939402  	93.786695 
2804.651523  	93.582200 
2810.363644  	93.504194 
2816.075766  	93.479402 
2821.787887  	93.280080 
2827.500008  	93.169493 
2833.212129  	92.895434 
2838.924250  	92.467764 
2844.636372  	91.665251 
2850.348493  	90.336421 
2856.060614  	90.048290 
2861.772735  	90.733974 
2867.484857  	90.824095 
2873.196978  	90.785595 
2878.909099  	90.773517 
2884.621220  	90.457054 
2890.333342  	90.268929 
2896.045463  	89.883169 
2901.757584  	89.319085 
2907.469705  	88.944561 
2913.181826  	88.262600 
2918.893948  	87.430440 
2924.606069  	87.094848 
2930.318190  	87.420779 
2936.030311  	88.131150 
2941.742433  	88.479320 
2947.454554  	88.396208 
2953.166675  	88.135509 
2958.878796  	87.795542 
2964.590918  	87.999927 
2970.303039  	88.632192 
2976.015160  	89.316781 
2981.727281  	90.217610 
2987.439402  	90.829031 
2993.151524  	91.118514 
2998.863645  	91.415233 
3004.575766  	91.456275 
3010.287887  	91.590143 
3016.000009  	91.870746 
3021.712130  	91.985740 
3027.424251  	92.165644 
3033.136372  	92.149283 
3038.848493  	92.001842 
3044.560615  	91.865151 
3050.272736  	91.345258 
3055.984857  	91.098516 
3061.696978  	91.164300 
3067.409100  	90.884239 
3073.121221  	90.796833 
3078.833342  	90.742285 
3084.545463  	90.555782 
3090.257585  	90.724655 
3095.969706  	90.573455 
3101.681827  	90.217217 
3107.393948  	90.270775 
3113.106069  	90.189850 
3118.818191  	90.077938 
3124.530312  	89.994658 
3130.242433  	89.727129 
3135.954554  	89.679194 
3141.666676  	89.550993 
3147.378797  	89.278310 
3153.090918  	89.171443 
3158.803039  	88.896631 
3164.515161  	88.693429 
3170.227282  	88.549236 
3175.939403  	88.193684 
3181.651524  	88.070445 
3187.363645  	87.872850 
3193.075767  	87.544960 
3198.787888  	87.507578 
3204.500009  	87.277953 
3210.212130  	87.044491 
3215.924252  	86.969376 
3221.636373  	86.626188 
3227.348494  	86.477970 
3233.060615  	86.399888 
3238.772736  	86.121360 
3244.484858  	86.058792 
3250.196979  	85.878518 
3255.909100  	85.661351 
3261.621221  	85.597163 
3267.333343  	85.304283 
3273.045464  	85.186681 
3278.757585  	85.144092 
3284.469706  	84.900450 
3290.181828  	84.918286 
3295.893949  	84.834491 
3301.606070  	84.654549 
3307.318191  	84.713469 
3313.030312  	84.567081 
3318.742434  	84.515262 
3324.454555  	84.558880 
3330.166676  	84.324827 
3335.878797  	84.338457 
3341.590919  	84.367541 
3347.303040  	84.278739 
3353.015161  	84.449117 
3358.727282  	84.405334 
3364.439403  	84.389651 
3370.151525  	84.569536 
3375.863646  	84.478488 
3381.575767  	84.609093 
3387.287888  	84.732096 
3393.000010  	84.591566 
3398.712131  	84.842492 
3404.424252  	84.962574 
3410.136373  	84.877392 
3415.848495  	84.990351 
3421.560616  	84.875621 
3427.272737  	85.018393 
3432.984858  	85.405894 
3438.696979  	85.512323 
3444.409101  	85.914437 
3450.121222  	86.288423 
3455.833343  	86.454666 
3461.545464  	86.892262 
3467.257586  	87.111638 
3472.969707  	87.385840 
3478.681828  	87.795843 
3484.393949  	87.847460 
3490.106071  	88.222427 
3495.818192  	88.623596 
3501.530313  	88.716437 
3507.242434  	89.110143 
3512.954555  	89.290640 
3518.666677  	89.500589 
3524.378798  	90.002411 
3530.090919  	90.027380 
3535.803040  	90.334299 
3541.515162  	90.851597 
3547.227283  	90.913371 
3552.939404  	91.192445 
3558.651525  	91.621534 
3564.363646  	91.840363 
3570.075768  	92.157868 
3575.787889  	92.401691 
3581.500010  	92.765305 
3587.212131  	93.085213 
3592.924253  	93.085473 
3598.636374  	93.362178 
3604.348495  	93.675717 
3610.060616  	93.812103 
3615.772738  	93.905371 
3621.484859  	93.994055 
3627.196980  	94.285070 
3632.909101  	94.259750 
3638.621222  	94.262397 
3644.333344  	94.922276 
3650.045465  	94.999981 
3655.757586  	94.589000 
3661.469707  	95.165285 
3667.181829  	95.493174 
3672.893950  	95.288603 
3678.606071  	95.354869 
3684.318192  	95.572539 
3690.030314  	95.646773 
3695.742435  	95.520180 
3701.454556  	95.608816 
3707.166677  	95.834333 
3712.878798  	95.618756 
3718.590920  	95.613807 
3724.303041  	95.825028 
3730.015162  	95.687293 
3735.727283  	95.713891 
3741.439405  	95.901454 
3747.151526  	95.765493 
3752.863647  	95.679711 
3758.575768  	95.720885 
3764.287889  	95.759559 
3770.000011  	95.704355 
3775.712132  	95.687236 
3781.424253  	95.805697 
3787.136374  	95.658301 
3792.848496  	95.714586 
3798.560617  	96.091123 
3804.272738  	95.447224 
3809.984859  	95.632055 
3815.696981  	96.206069 
3821.409102  	95.326530 
3827.121223  	95.559626 
3832.833344  	96.154741 
3838.545465  	95.297785 
3844.257587  	95.659988 
3849.969708  	96.130442 
3855.681829  	95.295924 
3861.393950  	95.703438 
3867.106072  	95.911810 
3872.818193  	95.361744 
3878.530314  	95.719002 
3884.242435  	95.617882 
3889.954557  	95.360927 
3895.666678  	95.829213 
3901.378799  	95.598620 
3907.090920  	95.390587 
3912.803041  	95.695107 
3918.515163  	95.591896 
3924.227284  	95.513408 
3929.939405  	95.530430 
3935.651526  	95.476842 
3941.363648  	95.585131 
3947.075769  	95.494727 
3952.787890  	95.418541 
3958.500011  	95.501092 
3964.212132  	95.372624 
3969.924254  	95.382286 
3975.636375  	95.433965 
3981.348496  	95.369445 
3987.060617  	95.458670 
3992.772739  	95.377042 
3998.484860  	95.355349 