##TITLE=No Description
##DATA TYPE=INFRARED SPECTRUM
##XUNITS=1/CM
##YUNITS=%T
399.848486  	102.287561 
405.560607  	100.931516 
411.272728  	100.291201 
416.984850  	94.895992 
422.696971  	97.400013 
428.409092  	100.853723 
434.121213  	98.983735 
439.833335  	98.032524 
445.545456  	98.503102 
451.257577  	98.054493 
456.969698  	98.480598 
462.681819  	98.661211 
468.393941  	98.269940 
474.106062  	98.665336 
479.818183  	98.760366 
485.530304  	98.606478 
491.242426  	98.636149 
496.954547  	98.559008 
502.666668  	98.615229 
508.378789  	98.792131 
514.090911  	98.707367 
519.803032  	98.498126 
525.515153  	98.527637 
531.227274  	98.659357 
536.939395  	98.682142 
542.651517  	98.646409 
548.363638  	98.498928 
554.075759  	98.471687 
559.787880  	98.666198 
565.500002  	98.584429 
571.212123  	98.403732 
576.924244  	98.480807 
582.636365  	98.430297 
588.348487  	98.343512 
594.060608  	98.274547 
599.772729  	97.944131 
605.484850  	97.737013 
611.196971  	97.706592 
616.909093  	97.639779 
622.621214  	97.889260 
628.333335  	98.152330 
634.045456  	98.151022 
639.757578  	98.279924 
645.469699  	98.387421 
651.181820  	98.353201 
656.893941  	98.528141 
662.606062  	98.710378 
668.318184  	98.660387 
674.030305  	98.584976 
679.742426  	98.580824 
685.454547  	98.577758 
691.166669  	98.612978 
696.878790  	98.676854 
702.590911  	98.781766 
708.303032  	98.913145 
714.015154  	99.046880 
719.727275  	99.182363 
725.439396  	99.284141 
731.151517  	99.346461 
736.863638  	99.374359 
742.575760  	99.386918 
748.287881  	99.371157 
754.000002  	99.350644 
759.712123  	99.398564 
765.424245  	99.435028 
771.136366  	99.398314 
776.848487  	99.376334 
782.560608  	99.406161 
788.272730  	99.460826 
793.984851  	99.462833 
799.696972  	99.411170 
805.409093  	99.412484 
811.121214  	99.398610 
816.833336  	99.337856 
822.545457  	99.305833 
828.257578  	99.267199 
833.969699  	99.277679 
839.681821  	99.321881 
845.393942  	99.282429 
851.106063  	99.243575 
856.818184  	99.226171 
862.530305  	99.221845 
868.242427  	99.280410 
873.954548  	99.278399 
879.666669  	99.260869 
885.378790  	99.317550 
891.090912  	99.277849 
896.803033  	99.227201 
902.515154  	99.280542 
908.227275  	99.254035 
913.939397  	99.162537 
919.651518  	99.098762 
925.363639  	99.051228 
931.075760  	99.039380 
936.787881  	98.998910 
942.500003  	98.943788 
948.212124  	98.930749 
953.924245  	98.865400 
959.636366  	98.792393 
965.348488  	98.805133 
971.060609  	98.839488 
976.772730  	98.916361 
982.484851  	99.044509 
988.196973  	99.139202 
993.909094  	99.202191 
999.621215  	99.202907 
1005.333336  	99.143067 
1011.045457  	99.154706 
1016.757579  	99.199191 
1022.469700  	99.157334 
1028.181821  	99.116028 
1033.893942  	99.142331 
1039.606064  	99.151657 
1045.318185  	99.122855 
1051.030306  	99.112541 
1056.742427  	99.098684 
1062.454548  	99.055649 
1068.166670  	99.053288 
1073.878791  	99.096381 
1079.590912  	99.083311 
1085.303033  	99.002256 
1091.015155  	98.962780 
1096.727276  	98.992416 
1102.439397  	99.012047 
1108.151518  	99.059927 
1113.863640  	99.171178 
1119.575761  	99.232266 
1125.287882  	99.267455 
1131.000003  	99.353948 
1136.712124  	99.403503 
1142.424246  	99.401958 
1148.136367  	99.395038 
1153.848488  	99.350885 
1159.560609  	99.317557 
1165.272731  	99.326087 
1170.984852  	99.317690 
1176.696973  	99.298730 
1182.409094  	99.262775 
1188.121215  	99.185710 
1193.833337  	99.140567 
1199.545458  	99.158019 
1205.257579  	99.177380 
1210.969700  	99.195208 
1216.681822  	99.206463 
1222.393943  	99.113821 
1228.106064  	98.940645 
1233.818185  	98.845682 
1239.530307  	98.821175 
1245.242428  	98.793696 
1250.954549  	98.797712 
1256.666670  	98.830026 
1262.378791  	98.917156 
1268.090913  	99.070387 
1273.803034  	99.179039 
1279.515155  	99.238439 
1285.227276  	99.302829 
1290.939398  	99.306931 
1296.651519  	99.248020 
1302.363640  	99.209156 
1308.075761  	99.183669 
1313.787883  	99.138742 
1319.500004  	99.068983 
1325.212125  	99.015832 
1330.924246  	99.020511 
1336.636367  	99.096169 
1342.348489  	99.240837 
1348.060610  	99.307054 
1353.772731  	99.262690 
1359.484852  	99.249127 
1365.196974  	99.310732 
1370.909095  	99.329382 
1376.621216  	99.315963 
1382.333337  	99.332731 
1388.045458  	99.370566 
1393.757580  	99.402250 
1399.469701  	99.393554 
1405.181822  	99.358296 
1410.893943  	99.284475 
1416.606065  	99.086918 
1422.318186  	98.928536 
1428.030307  	98.980893 
1433.742428  	99.013981 
1439.454550  	99.117917 
1445.166671  	99.306824 
1450.878792  	99.338660 
1456.590913  	99.215717 
1462.303034  	99.311771 
1468.015156  	99.401829 
1473.727277  	99.395218 
1479.439398  	99.492648 
1485.151519  	99.532783 
1490.863641  	99.417032 
1496.575762  	99.454974 
1502.287883  	99.503730 
1508.000004  	99.381606 
1513.712126  	99.479580 
1519.424247  	99.519312 
1525.136368  	99.361369 
1530.848489  	99.446252 
1536.560610  	99.387745 
1542.272732  	99.159209 
1547.984853  	99.412671 
1553.696974  	99.361816 
1559.409095  	99.102708 
1565.121217  	99.360949 
1570.833338  	99.374107 
1576.545459  	99.309523 
1582.257580  	99.394452 
1587.969701  	99.347379 
1593.681823  	99.326502 
1599.393944  	99.357350 
1605.106065  	99.306552 
1610.818186  	99.330627 
1616.530308  	99.304359 
1622.242429  	99.274079 
1627.954550  	99.341115 
1633.666671  	99.198039 
1639.378793  	99.183090 
1645.090914  	99.291475 
1650.803035  	99.153429 
1656.515156  	99.332000 
1662.227277  	99.438170 
1667.939399  	99.300786 
1673.651520  	99.345437 
1679.363641  	99.390002 
1685.075762  	99.311546 
1690.787884  	99.432705 
1696.500005  	99.396839 
1702.212126  	99.297494 
1707.924247  	99.494594 
1713.636369  	99.445188 
1719.348490  	99.292486 
1725.060611  	99.424276 
1730.772732  	99.343374 
1736.484853  	99.235708 
1742.196975  	99.437422 
1747.909096  	99.501839 
1753.621217  	99.516266 
1759.333338  	99.573203 
1765.045460  	99.552766 
1770.757581  	99.524520 
1776.469702  	99.586213 
1782.181823  	99.628885 
1787.893944  	99.609676 
1793.606066  	99.592364 
1799.318187  	99.631670 
1805.030308  	99.641008 
1810.742429  	99.630128 
1816.454551  	99.647073 
1822.166672  	99.599969 
1827.878793  	99.551161 
1833.590914  	99.631571 
1839.303036  	99.626694 
1845.015157  	99.573372 
1850.727278  	99.636630 
1856.439399  	99.646953 
1862.151520  	99.605831 
1867.863642  	99.610430 
1873.575763  	99.604480 
1879.287884  	99.606075 
1885.000005  	99.633861 
1890.712127  	99.656057 
1896.424248  	99.655075 
1902.136369  	99.635819 
1907.848490  	99.650783 
1913.560611  	99.677747 
1919.272733  	99.661240 
1924.984854  	99.661233 
1930.696975  	99.671330 
1936.409096  	99.629710 
1942.121218  	99.560048 
1947.833339  	99.564231 
1953.545460  	99.622990 
1959.257581  	99.467015 
1964.969703  	99.313818 
1970.681824  	99.520025 
1976.393945  	99.342286 
1982.106066  	99.240880 
1987.818187  	99.596515 
1993.530309  	99.507333 
1999.242430  	99.417197 
2004.954551  	99.626329 
2010.666672  	99.329505 
2016.378794  	99.208057 
2022.090915  	99.382469 
2027.803036  	98.965440 
2033.515157  	99.114711 
2039.227279  	99.545130 
2044.939400  	99.371884 
2050.651521  	99.288505 
2056.363642  	99.442328 
2062.075763  	99.506546 
2067.787885  	99.444578 
2073.500006  	99.373401 
2079.212127  	99.438238 
2084.924248  	99.483136 
2090.636370  	99.460288 
2096.348491  	99.515791 
2102.060612  	99.512718 
2107.772733  	99.487788 
2113.484854  	99.568497 
2119.196976  	99.553506 
2124.909097  	99.533101 
2130.621218  	99.603102 
2136.333339  	99.416121 
2142.045461  	99.209436 
2147.757582  	99.326078 
2153.469703  	99.208222 
2159.181824  	98.989118 
2164.893946  	99.280311 
2170.606067  	99.477290 
2176.318188  	99.360038 
2182.030309  	99.252489 
2187.742430  	99.215060 
2193.454552  	99.101298 
2199.166673  	99.158369 
2204.878794  	99.247847 
2210.590915  	99.125429 
2216.303037  	99.156152 
2222.015158  	99.215618 
2227.727279  	99.108756 
2233.439400  	99.168901 
2239.151522  	99.172205 
2244.863643  	99.067644 
2250.575764  	99.174545 
2256.287885  	99.236054 
2262.000006  	99.197455 
2267.712128  	99.237212 
2273.424249  	99.251803 
2279.136370  	99.273098 
2284.848491  	99.325169 
2290.560613  	99.301669 
2296.272734  	99.305131 
2301.984855  	99.325719 
2307.696976  	99.271147 
2313.409097  	99.243588 
2319.121219  	99.227293 
2324.833340  	99.218107 
2330.545461  	99.310706 
2336.257582  	99.354279 
2341.969704  	99.273112 
2347.681825  	99.221273 
2353.393946  	99.125852 
2359.106067  	98.995216 
2364.818189  	99.249336 
2370.530310  	99.489763 
2376.242431  	99.484552 
2381.954552  	99.408937 
2387.666673  	99.387230 
2393.378795  	99.355633 
2399.090916  	99.317433 
2404.803037  	99.314989 
2410.515158  	99.319129 
2416.227280  	99.309204 
2421.939401  	99.336629 
2427.651522  	99.341879 
2433.363643  	99.300243 
2439.075765  	99.300623 
2444.787886  	99.295895 
2450.500007  	99.277657 
2456.212128  	99.306691 
2461.924249  	99.288987 
2467.636371  	99.236344 
2473.348492  	99.272433 
2479.060613  	99.305288 
2484.772734  	99.250980 
2490.484856  	99.235846 
2496.196977  	99.282467 
2501.909098  	99.278296 
2507.621219  	99.249724 
2513.333340  	99.251774 
2519.045462  	99.236396 
2524.757583  	99.213025 
2530.469704  	99.194964 
2536.181825  	99.171691 
2541.893947  	99.192477 
2547.606068  	99.191436 
2553.318189  	99.123753 
2559.030310  	99.113947 
2564.742432  	99.118331 
2570.454553  	99.061671 
2576.166674  	99.051985 
2581.878795  	99.066105 
2587.590916  	99.033912 
2593.303038  	99.022374 
2599.015159  	99.036466 
2604.727280  	99.046011 
2610.439401  	99.059036 
2616.151523  	99.050651 
2621.863644  	99.025730 
2627.575765  	99.025850 
2633.287886  	99.046508 
2639.000007  	99.057891 
2644.712129  	99.063041 
2650.424250  	99.078312 
2656.136371  	99.103071 
2661.848492  	99.129600 
2667.560614  	99.135118 
2673.272735  	99.118408 
2678.984856  	99.118652 
2684.696977  	99.113939 
2690.409099  	99.084939 
2696.121220  	99.088931 
2701.833341  	99.100904 
2707.545462  	99.090594 
2713.257583  	99.098948 
2718.969705  	99.081686 
2724.681826  	99.051193 
2730.393947  	99.078345 
2736.106068  	99.084486 
2741.818190  	99.057680 
2747.530311  	99.061331 
2753.242432  	99.051375 
2758.954553  	99.045477 
2764.666675  	99.057789 
2770.378796  	99.033615 
2776.090917  	99.016173 
2781.803038  	99.012308 
2787.515159  	98.998782 
2793.227281  	99.013726 
2798.939402  	99.003745 
2804.651523  	98.958738 
2810.363644  	98.953883 
2816.075766  	98.959753 
2821.787887  	98.959044 
2827.500008  	98.951038 
2833.212129  	98.905344 
2838.924250  	98.854312 
2844.636372  	98.769381 
2850.348493  	98.657755 
2856.060614  	98.670028 
2861.772735  	98.771174 
2867.484857  	98.807304 
2873.196978  	98.796048 
2878.909099  	98.804148 
2884.621220  	98.834941 
2890.333342  	98.795474 
2896.045463  	98.655665 
2901.757584  	98.558331 
2907.469705  	98.507470 
2913.181826  	98.409723 
2918.893948  	98.335815 
2924.606069  	98.342766 
2930.318190  	98.402484 
2936.030311  	98.499745 
2941.742433  	98.575556 
2947.454554  	98.601518 
2953.166675  	98.596298 
2958.878796  	98.575096 
2964.590918  	98.601017 
2970.303039  	98.670552 
2976.015160  	98.728812 
2981.727281  	98.783905 
2987.439402  	98.806311 
2993.151524  	98.803816 
2998.863645  	98.829028 
3004.575766  	98.821426 
3010.287887  	98.782146 
3016.000009  	98.791962 
3021.712130  	98.787997 
3027.424251  	98.746381 
3033.136372  	98.759618 
3038.848493  	98.771854 
3044.560615  	98.714645 
3050.272736  	98.692093 
3055.984857  	98.720523 
3061.696978  	98.701205 
3067.409100  	98.669585 
3073.121221  	98.681553 
3078.833342  	98.674526 
3084.545463  	98.646203 
3090.257585  	98.663128 
3095.969706  	98.683969 
3101.681827  	98.647251 
3107.393948  	98.616513 
3113.106069  	98.630442 
3118.818191  	98.635243 
3124.530312  	98.640245 
3130.242433  	98.651725 
3135.954554  	98.621421 
3141.666676  	98.610958 
3147.378797  	98.630194 
3153.090918  	98.577038 
3158.803039  	98.536821 
3164.515161  	98.563063 
3170.227282  	98.528694 
3175.939403  	98.491809 
3181.651524  	98.516101 
3187.363645  	98.494718 
3193.075767  	98.450346 
3198.787888  	98.425747 
3204.500009  	98.418033 
3210.212130  	98.463457 
3215.924252  	98.459690 
3221.636373  	98.379259 
3227.348494  	98.366580 
3233.060615  	98.386525 
3238.772736  	98.387220 
3244.484858  	98.407597 
3250.196979  	98.393928 
3255.909100  	98.368500 
3261.621221  	98.371884 
3267.333343  	98.352309 
3273.045464  	98.334395 
3278.757585  	98.331080 
3284.469706  	98.338952 
3290.181828  	98.373707 
3295.893949  	98.359814 
3301.606070  	98.327478 
3307.318191  	98.343120 
3313.030312  	98.326829 
3318.742434  	98.302652 
3324.454555  	98.292911 
3330.166676  	98.254191 
3335.878797  	98.272484 
3341.590919  	98.289847 
3347.303040  	98.234772 
3353.015161  	98.254858 
3358.727282  	98.280959 
3364.439403  	98.226267 
3370.151525  	98.235076 
3375.863646  	98.255572 
3381.575767  	98.243804 
3387.287888  	98.273024 
3393.000010  	98.254526 
3398.712131  	98.229379 
3404.424252  	98.267145 
3410.136373  	98.241009 
3415.848495  	98.186751 
3421.560616  	98.190267 
3427.272737  	98.230952 
3432.984858  	98.290723 
3438.696979  	98.250765 
3444.409101  	98.161169 
3450.121222  	98.200064 
3455.833343  	98.205631 
3461.545464  	98.136663 
3467.257586  	98.193806 
3472.969707  	98.257742 
3478.681828  	98.214607 
3484.393949  	98.213724 
3490.106071  	98.250715 
3495.818192  	98.236325 
3501.530313  	98.210243 
3507.242434  	98.189713 
3512.954555  	98.189001 
3518.666677  	98.227910 
3524.378798  	98.217576 
3530.090919  	98.197631 
3535.803040  	98.300559 
3541.515162  	98.310640 
3547.227283  	98.284010 
3552.939404  	98.256568 
3558.651525  	98.276718 
3564.363646  	98.306499 
3570.075768  	98.337904 
3575.787889  	98.304600 
3581.500010  	98.299186 
3587.212131  	98.369028 
3592.924253  	98.398576 
3598.636374  	98.388456 
3604.348495  	98.412538 
3610.060616  	98.369659 
3615.772738  	98.402081 
3621.484859  	98.585639 
3627.196980  	98.600494 
3632.909101  	98.396519 
3638.621222  	98.358917 
3644.333344  	98.505973 
3650.045465  	98.571226 
3655.757586  	98.529768 
3661.469707  	98.440560 
3667.181829  	98.430363 
3672.893950  	98.307894 
3678.606071  	98.440253 
3684.318192  	98.608049 
3690.030314  	98.524160 
3695.742435  	98.322586 
3701.454556  	98.379440 
3707.166677  	98.454431 
3712.878798  	98.371390 
3718.590920  	98.365192 
3724.303041  	98.315762 
3730.015162  	98.218676 
3735.727283  	98.287818 
3741.439405  	98.435854 
3747.151526  	98.471358 
3752.863647  	98.409217 
3758.575768  	98.401186 
3764.287889  	98.370015 
3770.000011  	98.250677 
3775.712132  	98.275249 
3781.424253  	98.324824 
3787.136374  	98.220392 
3792.848496  	98.246031 
3798.560617  	98.281800 
3804.272738  	98.208867 
3809.984859  	98.375015 
3815.696981  	98.376959 
3821.409102  	98.097157 
3827.121223  	98.247640 
3832.833344  	98.245630 
3838.545465  	98.013804 
3844.257587  	98.206404 
3849.969708  	98.185697 
3855.681829  	98.026133 
3861.393950  	98.217386 
3867.106072  	98.150841 
3872.818193  	98.035182 
3878.530314  	98.111139 
3884.242435  	97.961387 
3889.954557  	97.972628 
3895.666678  	98.169699 
3901.378799  	98.049642 
3907.090920  	98.096755 
3912.803041  	98.163356 
3918.515163  	97.975278 
3924.227284  	97.942521 
3929.939405  	98.031833 
3935.651526  	97.980199 
3941.363648  	97.950731 
3947.075769  	97.921521 
3952.787890  	97.916074 
3958.500011  	97.962900 
3964.212132  	97.898383 
3969.924254  	97.849868 
3975.636375  	97.849207 
3981.348496  	97.827638 
3987.060617  	97.871281 
3992.772739  	97.838265 
3998.484860  	97.821505 