##TITLE=No Description
##DATA TYPE=INFRARED SPECTRUM
##XUNITS=1/CM
##YUNITS=%T
399.848486  	94.324475 
405.560607  	95.436410 
411.272728  	98.086648 
416.984850  	96.490141 
422.696971  	95.482958 
428.409092  	97.484943 
434.121213  	98.244367 
439.833335  	97.583756 
445.545456  	96.589468 
451.257577  	96.776628 
456.969698  	98.516002 
462.681819  	98.284144 
468.393941  	97.510456 
474.106062  	98.659774 
479.818183  	98.765800 
485.530304  	97.888122 
491.242426  	97.766156 
496.954547  	97.785254 
502.666668  	97.856939 
508.378789  	98.001984 
514.090911  	98.003637 
519.803032  	98.114281 
525.515153  	98.142897 
531.227274  	98.103713 
536.939395  	98.153304 
542.651517  	98.143660 
548.363638  	98.096741 
554.075759  	98.036711 
559.787880  	98.134377 
565.500002  	98.276464 
571.212123  	98.093301 
576.924244  	97.967924 
582.636365  	97.991939 
588.348487  	97.846305 
594.060608  	97.812909 
599.772729  	97.722269 
605.484850  	97.368300 
611.196971  	97.201369 
616.909093  	97.246884 
622.621214  	97.483798 
628.333335  	97.758429 
634.045456  	97.758515 
639.757578  	97.805480 
645.469699  	97.977123 
651.181820  	97.992077 
656.893941  	98.110730 
662.606062  	98.244229 
668.318184  	98.173784 
674.030305  	98.199186 
679.742426  	98.204540 
685.454547  	98.185591 
691.166669  	98.324868 
696.878790  	98.361021 
702.590911  	98.459245 
708.303032  	98.667274 
714.015154  	98.718479 
719.727275  	98.856371 
725.439396  	99.036789 
731.151517  	99.052550 
736.863638  	99.122610 
742.575760  	99.152445 
748.287881  	99.128073 
754.000002  	99.209824 
759.712123  	99.194222 
765.424245  	99.187785 
771.136366  	99.323235 
776.848487  	99.331699 
782.560608  	99.316762 
788.272730  	99.395613 
793.984851  	99.413857 
799.696972  	99.428503 
805.409093  	99.423505 
811.121214  	99.408452 
816.833336  	99.440494 
822.545457  	99.346046 
828.257578  	99.240250 
833.969699  	99.278721 
839.681821  	99.299133 
845.393942  	99.296065 
851.106063  	99.248971 
856.818184  	99.198754 
862.530305  	99.267426 
868.242427  	99.135658 
873.954548  	98.860762 
879.666669  	98.997674 
885.378790  	99.281116 
891.090912  	99.271368 
896.803033  	99.215688 
902.515154  	99.227384 
908.227275  	99.173462 
913.939397  	99.090374 
919.651518  	99.040498 
925.363639  	99.037374 
931.075760  	99.014995 
936.787881  	98.954509 
942.500003  	98.937928 
948.212124  	98.911911 
953.924245  	98.820393 
959.636366  	98.748239 
965.348488  	98.728973 
971.060609  	98.760800 
976.772730  	98.859382 
982.484851  	98.987645 
988.196973  	99.082531 
993.909094  	99.136106 
999.621215  	99.179477 
1005.333336  	99.181373 
1011.045457  	99.152280 
1016.757579  	99.171402 
1022.469700  	99.178357 
1028.181821  	99.141417 
1033.893942  	99.160835 
1039.606064  	99.179853 
1045.318185  	99.145094 
1051.030306  	99.141390 
1056.742427  	99.135537 
1062.454548  	99.099027 
1068.166670  	99.098067 
1073.878791  	99.116954 
1079.590912  	99.106372 
1085.303033  	99.062899 
1091.015155  	99.036411 
1096.727276  	99.028277 
1102.439397  	99.014595 
1108.151518  	99.084815 
1113.863640  	99.203611 
1119.575761  	99.275178 
1125.287882  	99.364558 
1131.000003  	99.426664 
1136.712124  	99.434534 
1142.424246  	99.466634 
1148.136367  	99.441005 
1153.848488  	99.380283 
1159.560609  	99.380629 
1165.272731  	99.337250 
1170.984852  	99.285914 
1176.696973  	99.293661 
1182.409094  	99.228433 
1188.121215  	99.130734 
1193.833337  	99.097872 
1199.545458  	99.079889 
1205.257579  	99.086392 
1210.969700  	99.121441 
1216.681822  	99.122912 
1222.393943  	99.025339 
1228.106064  	98.843444 
1233.818185  	98.733019 
1239.530307  	98.705919 
1245.242428  	98.671655 
1250.954549  	98.700744 
1256.666670  	98.778037 
1262.378791  	98.859177 
1268.090913  	99.004418 
1273.803034  	99.146005 
1279.515155  	99.218420 
1285.227276  	99.264950 
1290.939398  	99.271789 
1296.651519  	99.230143 
1302.363640  	99.167040 
1308.075761  	99.094607 
1313.787883  	99.033646 
1319.500004  	98.953962 
1325.212125  	98.890230 
1330.924246  	98.902611 
1336.636367  	98.978732 
1342.348489  	99.124325 
1348.060610  	99.203596 
1353.772731  	99.166711 
1359.484852  	99.159924 
1365.196974  	99.207232 
1370.909095  	99.205133 
1376.621216  	99.214515 
1382.333337  	99.237672 
1388.045458  	99.219858 
1393.757580  	99.189608 
1399.469701  	99.124916 
1405.181822  	99.014130 
1410.893943  	98.863837 
1416.606065  	98.614063 
1422.318186  	98.454149 
1428.030307  	98.512810 
1433.742428  	98.557129 
1439.454550  	98.677042 
1445.166671  	98.838834 
1450.878792  	98.830137 
1456.590913  	98.708769 
1462.303034  	98.877485 
1468.015156  	98.974104 
1473.727277  	98.928661 
1479.439398  	99.104967 
1485.151519  	99.217094 
1490.863641  	99.115509 
1496.575762  	99.232502 
1502.287883  	99.360693 
1508.000004  	99.192441 
1513.712126  	99.325788 
1519.424247  	99.465892 
1525.136368  	99.261938 
1530.848489  	99.364107 
1536.560610  	99.369033 
1542.272732  	99.027955 
1547.984853  	99.337995 
1553.696974  	99.358935 
1559.409095  	99.053803 
1565.121217  	99.380510 
1570.833338  	99.428778 
1576.545459  	99.311791 
1582.257580  	99.450913 
1587.969701  	99.420005 
1593.681823  	99.341170 
1599.393944  	99.369721 
1605.106065  	99.309520 
1610.818186  	99.343187 
1616.530308  	99.308160 
1622.242429  	99.223765 
1627.954550  	99.364799 
1633.666671  	99.276557 
1639.378793  	99.255412 
1645.090914  	99.422824 
1650.803035  	99.197759 
1656.515156  	99.340073 
1662.227277  	99.560161 
1667.939399  	99.362305 
1673.651520  	99.362367 
1679.363641  	99.475589 
1685.075762  	99.225684 
1690.787884  	99.326215 
1696.500005  	99.379391 
1702.212126  	99.215678 
1707.924247  	99.452969 
1713.636369  	99.435951 
1719.348490  	99.244742 
1725.060611  	99.435365 
1730.772732  	99.337369 
1736.484853  	99.134644 
1742.196975  	99.380464 
1747.909096  	99.423557 
1753.621217  	99.419253 
1759.333338  	99.511455 
1765.045460  	99.489946 
1770.757581  	99.479702 
1776.469702  	99.508393 
1782.181823  	99.535574 
1787.893944  	99.558482 
1793.606066  	99.452998 
1799.318187  	99.479267 
1805.030308  	99.604143 
1810.742429  	99.525005 
1816.454551  	99.465378 
1822.166672  	99.479800 
1827.878793  	99.419458 
1833.590914  	99.510933 
1839.303036  	99.527671 
1845.015157  	99.410335 
1850.727278  	99.515169 
1856.439399  	99.572554 
1862.151520  	99.485815 
1867.863642  	99.470612 
1873.575763  	99.502703 
1879.287884  	99.556070 
1885.000005  	99.556810 
1890.712127  	99.490630 
1896.424248  	99.525913 
1902.136369  	99.517525 
1907.848490  	99.473497 
1913.560611  	99.516253 
1919.272733  	99.488888 
1924.984854  	99.464243 
1930.696975  	99.435429 
1936.409096  	99.290408 
1942.121218  	99.305355 
1947.833339  	99.394163 
1953.545460  	99.363143 
1959.257581  	99.272773 
1964.969703  	99.173541 
1970.681824  	99.307561 
1976.393945  	99.218532 
1982.106066  	99.095869 
1987.818187  	99.399113 
1993.530309  	99.338873 
1999.242430  	99.266079 
2004.954551  	99.555024 
2010.666672  	99.161325 
2016.378794  	98.837028 
2022.090915  	99.250621 
2027.803036  	99.148921 
2033.515157  	99.206690 
2039.227279  	99.616582 
2044.939400  	99.459088 
2050.651521  	99.289800 
2056.363642  	99.380258 
2062.075763  	99.430441 
2067.787885  	99.416248 
2073.500006  	99.342012 
2079.212127  	99.336278 
2084.924248  	99.400793 
2090.636370  	99.454218 
2096.348491  	99.481093 
2102.060612  	99.347670 
2107.772733  	99.234619 
2113.484854  	99.334380 
2119.196976  	99.367636 
2124.909097  	99.358447 
2130.621218  	99.384184 
2136.333339  	99.209256 
2142.045461  	99.155247 
2147.757582  	99.295495 
2153.469703  	99.025777 
2159.181824  	98.821580 
2164.893946  	99.174158 
2170.606067  	99.381255 
2176.318188  	99.412698 
2182.030309  	99.412263 
2187.742430  	99.276873 
2193.454552  	99.086780 
2199.166673  	99.151948 
2204.878794  	99.333752 
2210.590915  	99.211192 
2216.303037  	99.146657 
2222.015158  	99.253593 
2227.727279  	99.138409 
2233.439400  	99.130614 
2239.151522  	99.314554 
2244.863643  	99.320175 
2250.575764  	99.243639 
2256.287885  	99.286120 
2262.000006  	99.315733 
2267.712128  	99.360491 
2273.424249  	99.411536 
2279.136370  	99.410530 
2284.848491  	99.397843 
2290.560613  	99.359504 
2296.272734  	99.334871 
2301.984855  	99.306137 
2307.696976  	99.215829 
2313.409097  	99.182261 
2319.121219  	99.215568 
2324.833340  	99.194248 
2330.545461  	99.265992 
2336.257582  	99.351240 
2341.969704  	99.214059 
2347.681825  	99.137009 
2353.393946  	99.229017 
2359.106067  	99.349649 
2364.818189  	99.648464 
2370.530310  	99.756902 
2376.242431  	99.567490 
2381.954552  	99.409201 
2387.666673  	99.403277 
2393.378795  	99.335021 
2399.090916  	99.249933 
2404.803037  	99.214467 
2410.515158  	99.208140 
2416.227280  	99.191189 
2421.939401  	99.191904 
2427.651522  	99.208038 
2433.363643  	99.178581 
2439.075765  	99.168263 
2444.787886  	99.184156 
2450.500007  	99.158177 
2456.212128  	99.178588 
2461.924249  	99.200133 
2467.636371  	99.117814 
2473.348492  	99.109735 
2479.060613  	99.191830 
2484.772734  	99.166728 
2490.484856  	99.132605 
2496.196977  	99.169873 
2501.909098  	99.163321 
2507.621219  	99.157345 
2513.333340  	99.171104 
2519.045462  	99.140851 
2524.757583  	99.130160 
2530.469704  	99.131904 
2536.181825  	99.122808 
2541.893947  	99.155445 
2547.606068  	99.136435 
2553.318189  	99.068372 
2559.030310  	99.091061 
2564.742432  	99.103692 
2570.454553  	99.058086 
2576.166674  	99.081621 
2581.878795  	99.095272 
2587.590916  	99.044707 
2593.303038  	99.043626 
2599.015159  	99.063361 
2604.727280  	99.070740 
2610.439401  	99.102752 
2616.151523  	99.092298 
2621.863644  	99.059602 
2627.575765  	99.088684 
2633.287886  	99.110032 
2639.000007  	99.106949 
2644.712129  	99.128525 
2650.424250  	99.121032 
2656.136371  	99.110719 
2661.848492  	99.145035 
2667.560614  	99.131101 
2673.272735  	99.085474 
2678.984856  	99.093791 
2684.696977  	99.068402 
2690.409099  	99.018677 
2696.121220  	99.044877 
2701.833341  	99.053883 
2707.545462  	99.026268 
2713.257583  	99.046586 
2718.969705  	99.045530 
2724.681826  	99.013821 
2730.393947  	99.019893 
2736.106068  	99.018759 
2741.818190  	99.007307 
2747.530311  	99.015387 
2753.242432  	99.012507 
2758.954553  	99.000706 
2764.666675  	98.983292 
2770.378796  	98.970282 
2776.090917  	98.981972 
2781.803038  	98.974590 
2787.515159  	98.952430 
2793.227281  	98.955604 
2798.939402  	98.948784 
2804.651523  	98.921204 
2810.363644  	98.892159 
2816.075766  	98.880294 
2821.787887  	98.901634 
2827.500008  	98.893519 
2833.212129  	98.848536 
2838.924250  	98.815270 
2844.636372  	98.725024 
2850.348493  	98.619557 
2856.060614  	98.660079 
2861.772735  	98.767211 
2867.484857  	98.810578 
2873.196978  	98.825535 
2878.909099  	98.832705 
2884.621220  	98.834068 
2890.333342  	98.796197 
2896.045463  	98.677908 
2901.757584  	98.569108 
2907.469705  	98.505717 
2913.181826  	98.410964 
2918.893948  	98.342178 
2924.606069  	98.389877 
2930.318190  	98.467582 
2936.030311  	98.523885 
2941.742433  	98.599584 
2947.454554  	98.659061 
2953.166675  	98.664274 
2958.878796  	98.662229 
2964.590918  	98.693718 
2970.303039  	98.730539 
2976.015160  	98.777065 
2981.727281  	98.849332 
2987.439402  	98.866845 
2993.151524  	98.816330 
2998.863645  	98.802172 
3004.575766  	98.810502 
3010.287887  	98.775293 
3016.000009  	98.747237 
3021.712130  	98.744280 
3027.424251  	98.725028 
3033.136372  	98.711778 
3038.848493  	98.714017 
3044.560615  	98.706774 
3050.272736  	98.694443 
3055.984857  	98.674515 
3061.696978  	98.654420 
3067.409100  	98.662583 
3073.121221  	98.677493 
3078.833342  	98.657989 
3084.545463  	98.630787 
3090.257585  	98.646332 
3095.969706  	98.664949 
3101.681827  	98.645759 
3107.393948  	98.638079 
3113.106069  	98.620188 
3118.818191  	98.578024 
3124.530312  	98.623493 
3130.242433  	98.680759 
3135.954554  	98.616330 
3141.666676  	98.584583 
3147.378797  	98.628930 
3153.090918  	98.596105 
3158.803039  	98.546674 
3164.515161  	98.542805 
3170.227282  	98.526268 
3175.939403  	98.534959 
3181.651524  	98.545855 
3187.363645  	98.508326 
3193.075767  	98.488632 
3198.787888  	98.481184 
3204.500009  	98.469953 
3210.212130  	98.489126 
3215.924252  	98.481654 
3221.636373  	98.438046 
3227.348494  	98.422460 
3233.060615  	98.427544 
3238.772736  	98.448532 
3244.484858  	98.469366 
3250.196979  	98.457066 
3255.909100  	98.457473 
3261.621221  	98.465905 
3267.333343  	98.430818 
3273.045464  	98.406034 
3278.757585  	98.425173 
3284.469706  	98.437128 
3290.181828  	98.428745 
3295.893949  	98.418735 
3301.606070  	98.412667 
3307.318191  	98.399474 
3313.030312  	98.379901 
3318.742434  	98.376178 
3324.454555  	98.377222 
3330.166676  	98.370963 
3335.878797  	98.360215 
3341.590919  	98.329989 
3347.303040  	98.320849 
3353.015161  	98.350675 
3358.727282  	98.347605 
3364.439403  	98.328417 
3370.151525  	98.331308 
3375.863646  	98.321654 
3381.575767  	98.327101 
3387.287888  	98.319616 
3393.000010  	98.267790 
3398.712131  	98.304198 
3404.424252  	98.374876 
3410.136373  	98.307631 
3415.848495  	98.228580 
3421.560616  	98.246708 
3427.272737  	98.268871 
3432.984858  	98.281489 
3438.696979  	98.278993 
3444.409101  	98.244378 
3450.121222  	98.251401 
3455.833343  	98.271530 
3461.545464  	98.235346 
3467.257586  	98.239696 
3472.969707  	98.304076 
3478.681828  	98.274491 
3484.393949  	98.204823 
3490.106071  	98.242011 
3495.818192  	98.243056 
3501.530313  	98.167784 
3507.242434  	98.177502 
3512.954555  	98.225908 
3518.666677  	98.277831 
3524.378798  	98.307565 
3530.090919  	98.231402 
3535.803040  	98.250659 
3541.515162  	98.293273 
3547.227283  	98.277122 
3552.939404  	98.233837 
3558.651525  	98.275570 
3564.363646  	98.253393 
3570.075768  	98.255922 
3575.787889  	98.294621 
3581.500010  	98.328082 
3587.212131  	98.408972 
3592.924253  	98.359997 
3598.636374  	98.258831 
3604.348495  	98.387301 
3610.060616  	98.449706 
3615.772738  	98.317255 
3621.484859  	98.416408 
3627.196980  	98.532810 
3632.909101  	98.420728 
3638.621222  	98.362107 
3644.333344  	98.462921 
3650.045465  	98.477553 
3655.757586  	98.448136 
3661.469707  	98.374202 
3667.181829  	98.446569 
3672.893950  	98.378736 
3678.606071  	98.403325 
3684.318192  	98.492625 
3690.030314  	98.403779 
3695.742435  	98.299011 
3701.454556  	98.390528 
3707.166677  	98.347778 
3712.878798  	98.198104 
3718.590920  	98.300618 
3724.303041  	98.159426 
3730.015162  	98.011476 
3735.727283  	98.289953 
3741.439405  	98.442878 
3747.151526  	98.379338 
3752.863647  	98.440438 
3758.575768  	98.543851 
3764.287889  	98.507254 
3770.000011  	98.326645 
3775.712132  	98.355870 
3781.424253  	98.357376 
3787.136374  	98.085288 
3792.848496  	98.213287 
3798.560617  	98.272755 
3804.272738  	97.951110 
3809.984859  	98.291737 
3815.696981  	98.371443 
3821.409102  	97.846454 
3827.121223  	98.217358 
3832.833344  	98.310052 
3838.545465  	97.809633 
3844.257587  	98.174133 
3849.969708  	98.208342 
3855.681829  	97.834019 
3861.393950  	98.227281 
3867.106072  	98.202973 
3872.818193  	97.919904 
3878.530314  	98.093250 
3884.242435  	98.014106 
3889.954557  	98.002746 
3895.666678  	98.189570 
3901.378799  	98.051741 
3907.090920  	98.083183 
3912.803041  	98.177362 
3918.515163  	98.000177 
3924.227284  	97.955225 
3929.939405  	98.014867 
3935.651526  	97.962616 
3941.363648  	97.964078 
3947.075769  	97.910992 
3952.787890  	97.887909 
3958.500011  	97.938648 
3964.212132  	97.841610 
3969.924254  	97.818433 
3975.636375  	97.852538 
3981.348496  	97.794503 
3987.060617  	97.829211 
3992.772739  	97.775986 
3998.484860  	97.740920 