##TITLE=No Description
##DATA TYPE=INFRARED SPECTRUM
##XUNITS=1/CM
##YUNITS=%T
399.848486  	94.147556 
405.560607  	94.378458 
411.272728  	95.717109 
416.984850  	93.625556 
422.696971  	91.530097 
428.409092  	94.123244 
434.121213  	92.964530 
439.833335  	92.350704 
445.545456  	94.711795 
451.257577  	94.662593 
456.969698  	93.915638 
462.681819  	94.367140 
468.393941  	94.106321 
474.106062  	94.025311 
479.818183  	93.585135 
485.530304  	93.234705 
491.242426  	93.578661 
496.954547  	93.319999 
502.666668  	93.417160 
508.378789  	93.673277 
514.090911  	92.955720 
519.803032  	93.030792 
525.515153  	93.598875 
531.227274  	93.307083 
536.939395  	93.287270 
542.651517  	93.457439 
548.363638  	93.344935 
554.075759  	93.458737 
559.787880  	93.552832 
565.500002  	93.498772 
571.212123  	93.399535 
576.924244  	93.124989 
582.636365  	92.847141 
588.348487  	92.539311 
594.060608  	92.062253 
599.772729  	91.039604 
605.484850  	89.558197 
611.196971  	88.851025 
616.909093  	89.289490 
622.621214  	90.240505 
628.333335  	90.891628 
634.045456  	91.152836 
639.757578  	91.494905 
645.469699  	91.963050 
651.181820  	92.509515 
656.893941  	93.248137 
662.606062  	93.636741 
668.318184  	93.297884 
674.030305  	93.138908 
679.742426  	93.253868 
685.454547  	93.267922 
691.166669  	93.496388 
696.878790  	93.685014 
702.590911  	94.014659 
708.303032  	94.698891 
714.015154  	95.257695 
719.727275  	95.817531 
725.439396  	96.285196 
731.151517  	96.417541 
736.863638  	96.628896 
742.575760  	96.812521 
748.287881  	96.842975 
754.000002  	97.024560 
759.712123  	97.106369 
765.424245  	97.179285 
771.136366  	97.486229 
776.848487  	97.634905 
782.560608  	97.732107 
788.272730  	97.864201 
793.984851  	97.836200 
799.696972  	97.955056 
805.409093  	98.017576 
811.121214  	97.891999 
816.833336  	97.905598 
822.545457  	97.610745 
828.257578  	97.115793 
833.969699  	96.989224 
839.681821  	96.998458 
845.393942  	97.126841 
851.106063  	97.141952 
856.818184  	97.040221 
862.530305  	97.276626 
868.242427  	96.791757 
873.954548  	95.750227 
879.666669  	96.263910 
885.378790  	97.344069 
891.090912  	97.286940 
896.803033  	97.181168 
902.515154  	97.273832 
908.227275  	96.924764 
913.939397  	96.639354 
919.651518  	96.518550 
925.363639  	96.416217 
931.075760  	96.405609 
936.787881  	96.286482 
942.500003  	96.121676 
948.212124  	96.000395 
953.924245  	95.756941 
959.636366  	95.450126 
965.348488  	95.252622 
971.060609  	95.391319 
976.772730  	95.889743 
982.484851  	96.404747 
988.196973  	96.791449 
993.909094  	97.049512 
999.621215  	97.115263 
1005.333336  	97.125408 
1011.045457  	97.204766 
1016.757579  	97.259863 
1022.469700  	97.255657 
1028.181821  	97.259524 
1033.893942  	97.273083 
1039.606064  	97.247174 
1045.318185  	97.207304 
1051.030306  	97.180763 
1056.742427  	97.127757 
1062.454548  	97.073126 
1068.166670  	97.037589 
1073.878791  	97.009242 
1079.590912  	96.965520 
1085.303033  	96.824633 
1091.015155  	96.675827 
1096.727276  	96.634729 
1102.439397  	96.695518 
1108.151518  	96.940823 
1113.863640  	97.221487 
1119.575761  	97.391220 
1125.287882  	97.635087 
1131.000003  	97.879833 
1136.712124  	97.980945 
1142.424246  	97.999364 
1148.136367  	97.927643 
1153.848488  	97.845706 
1159.560609  	97.758355 
1165.272731  	97.564708 
1170.984852  	97.463307 
1176.696973  	97.464493 
1182.409094  	97.275414 
1188.121215  	96.943593 
1193.833337  	96.684098 
1199.545458  	96.628422 
1205.257579  	96.786065 
1210.969700  	96.971999 
1216.681822  	96.992601 
1222.393943  	96.576943 
1228.106064  	95.747392 
1233.818185  	95.093556 
1239.530307  	94.819891 
1245.242428  	94.724850 
1250.954549  	94.838339 
1256.666670  	95.086867 
1262.378791  	95.509491 
1268.090913  	96.190965 
1273.803034  	96.853171 
1279.515155  	97.289404 
1285.227276  	97.523221 
1290.939398  	97.548532 
1296.651519  	97.387408 
1302.363640  	97.182580 
1308.075761  	96.995452 
1313.787883  	96.742212 
1319.500004  	96.371672 
1325.212125  	96.092001 
1330.924246  	96.063532 
1336.636367  	96.369425 
1342.348489  	96.964085 
1348.060610  	97.233705 
1353.772731  	97.166431 
1359.484852  	97.198567 
1365.196974  	97.397134 
1370.909095  	97.460273 
1376.621216  	97.386761 
1382.333337  	97.380402 
1388.045458  	97.361597 
1393.757580  	97.260618 
1399.469701  	97.199665 
1405.181822  	96.851704 
1410.893943  	96.101633 
1416.606065  	95.149442 
1422.318186  	94.406889 
1428.030307  	94.257122 
1433.742428  	94.424665 
1439.454550  	95.178021 
1445.166671  	95.835530 
1450.878792  	95.933952 
1456.590913  	95.848130 
1462.303034  	96.239383 
1468.015156  	96.390049 
1473.727277  	96.416839 
1479.439398  	96.920796 
1485.151519  	97.167622 
1490.863641  	97.298365 
1496.575762  	97.736871 
1502.287883  	97.927617 
1508.000004  	97.906924 
1513.712126  	98.136364 
1519.424247  	98.227914 
1525.136368  	98.164028 
1530.848489  	98.278995 
1536.560610  	98.170960 
1542.272732  	97.933536 
1547.984853  	98.229805 
1553.696974  	98.128453 
1559.409095  	97.844687 
1565.121217  	98.113743 
1570.833338  	98.082302 
1576.545459  	98.123442 
1582.257580  	98.309704 
1587.969701  	98.314774 
1593.681823  	98.329669 
1599.393944  	98.323970 
1605.106065  	98.304955 
1610.818186  	98.359226 
1616.530308  	98.291235 
1622.242429  	98.344859 
1627.954550  	98.448584 
1633.666671  	98.301128 
1639.378793  	98.370935 
1645.090914  	98.428379 
1650.803035  	98.186341 
1656.515156  	98.485649 
1662.227277  	98.593514 
1667.939399  	98.369531 
1673.651520  	98.383930 
1679.363641  	98.363827 
1685.075762  	98.134737 
1690.787884  	98.243191 
1696.500005  	98.162328 
1702.212126  	98.133512 
1707.924247  	98.429388 
1713.636369  	98.363178 
1719.348490  	98.204518 
1725.060611  	98.295792 
1730.772732  	98.096155 
1736.484853  	98.018302 
1742.196975  	98.331096 
1747.909096  	98.426641 
1753.621217  	98.512542 
1759.333338  	98.608769 
1765.045460  	98.593700 
1770.757581  	98.545933 
1776.469702  	98.610553 
1782.181823  	98.687261 
1787.893944  	98.630788 
1793.606066  	98.528863 
1799.318187  	98.607583 
1805.030308  	98.688223 
1810.742429  	98.690733 
1816.454551  	98.715292 
1822.166672  	98.662785 
1827.878793  	98.571732 
1833.590914  	98.680987 
1839.303036  	98.714159 
1845.015157  	98.616953 
1850.727278  	98.684903 
1856.439399  	98.747244 
1862.151520  	98.686085 
1867.863642  	98.681248 
1873.575763  	98.737802 
1879.287884  	98.747130 
1885.000005  	98.738540 
1890.712127  	98.753056 
1896.424248  	98.774832 
1902.136369  	98.751500 
1907.848490  	98.777578 
1913.560611  	98.861284 
1919.272733  	98.820387 
1924.984854  	98.776932 
1930.696975  	98.840536 
1936.409096  	98.811966 
1942.121218  	98.796871 
1947.833339  	98.835024 
1953.545460  	98.742407 
1959.257581  	98.710799 
1964.969703  	98.657881 
1970.681824  	98.575061 
1976.393945  	98.754153 
1982.106066  	98.801466 
1987.818187  	98.714106 
1993.530309  	98.771573 
1999.242430  	98.886964 
2004.954551  	98.946198 
2010.666672  	98.732606 
2016.378794  	98.458542 
2022.090915  	98.581144 
2027.803036  	98.566943 
2033.515157  	98.631913 
2039.227279  	98.881541 
2044.939400  	98.648086 
2050.651521  	98.508488 
2056.363642  	98.740536 
2062.075763  	98.764345 
2067.787885  	98.617947 
2073.500006  	98.632987 
2079.212127  	98.690972 
2084.924248  	98.698120 
2090.636370  	98.706603 
2096.348491  	98.716859 
2102.060612  	98.710349 
2107.772733  	98.715614 
2113.484854  	98.730961 
2119.196976  	98.678130 
2124.909097  	98.643565 
2130.621218  	98.698405 
2136.333339  	98.661933 
2142.045461  	98.596244 
2147.757582  	98.636147 
2153.469703  	98.471154 
2159.181824  	98.318992 
2164.893946  	98.541182 
2170.606067  	98.710453 
2176.318188  	98.822126 
2182.030309  	98.822690 
2187.742430  	98.566060 
2193.454552  	98.453972 
2199.166673  	98.633096 
2204.878794  	98.668336 
2210.590915  	98.513798 
2216.303037  	98.589251 
2222.015158  	98.644339 
2227.727279  	98.443682 
2233.439400  	98.424084 
2239.151522  	98.489972 
2244.863643  	98.423057 
2250.575764  	98.441285 
2256.287885  	98.661985 
2262.000006  	98.765548 
2267.712128  	98.745279 
2273.424249  	98.774243 
2279.136370  	98.697076 
2284.848491  	98.589458 
2290.560613  	98.475357 
2296.272734  	98.373521 
2301.984855  	98.247603 
2307.696976  	98.079838 
2313.409097  	98.043353 
2319.121219  	98.105503 
2324.833340  	97.721379 
2330.545461  	97.738296 
2336.257582  	98.353797 
2341.969704  	98.096479 
2347.681825  	97.573009 
2353.393946  	98.160136 
2359.106067  	99.172001 
2364.818189  	99.723377 
2370.530310  	99.587431 
2376.242431  	99.026603 
2381.954552  	98.498560 
2387.666673  	98.476315 
2393.378795  	98.412955 
2399.090916  	98.434854 
2404.803037  	98.448493 
2410.515158  	98.408392 
2416.227280  	98.401788 
2421.939401  	98.421927 
2427.651522  	98.407065 
2433.363643  	98.344476 
2439.075765  	98.358330 
2444.787886  	98.399943 
2450.500007  	98.351547 
2456.212128  	98.347158 
2461.924249  	98.372222 
2467.636371  	98.330956 
2473.348492  	98.337230 
2479.060613  	98.375815 
2484.772734  	98.356698 
2490.484856  	98.341401 
2496.196977  	98.350086 
2501.909098  	98.340527 
2507.621219  	98.308962 
2513.333340  	98.297937 
2519.045462  	98.304397 
2524.757583  	98.266647 
2530.469704  	98.243487 
2536.181825  	98.288790 
2541.893947  	98.305736 
2547.606068  	98.261231 
2553.318189  	98.205052 
2559.030310  	98.180336 
2564.742432  	98.190416 
2570.454553  	98.183378 
2576.166674  	98.161177 
2581.878795  	98.141319 
2587.590916  	98.121408 
2593.303038  	98.137220 
2599.015159  	98.147442 
2604.727280  	98.128979 
2610.439401  	98.143723 
2616.151523  	98.151052 
2621.863644  	98.147751 
2627.575765  	98.179420 
2633.287886  	98.177106 
2639.000007  	98.158036 
2644.712129  	98.175675 
2650.424250  	98.178342 
2656.136371  	98.187578 
2661.848492  	98.211498 
2667.560614  	98.189081 
2673.272735  	98.169927 
2678.984856  	98.176912 
2684.696977  	98.148429 
2690.409099  	98.134606 
2696.121220  	98.153255 
2701.833341  	98.135164 
2707.545462  	98.121387 
2713.257583  	98.136170 
2718.969705  	98.116792 
2724.681826  	98.090355 
2730.393947  	98.097365 
2736.106068  	98.093554 
2741.818190  	98.069914 
2747.530311  	98.063073 
2753.242432  	98.077587 
2758.954553  	98.092882 
2764.666675  	98.088477 
2770.378796  	98.059844 
2776.090917  	98.033290 
2781.803038  	98.038427 
2787.515159  	98.053560 
2793.227281  	98.037674 
2798.939402  	98.011821 
2804.651523  	97.985162 
2810.363644  	97.925579 
2816.075766  	97.895611 
2821.787887  	97.930466 
2827.500008  	97.922649 
2833.212129  	97.870145 
2838.924250  	97.806445 
2844.636372  	97.628891 
2850.348493  	97.455248 
2856.060614  	97.541886 
2861.772735  	97.729718 
2867.484857  	97.773511 
2873.196978  	97.754417 
2878.909099  	97.743861 
2884.621220  	97.721527 
2890.333342  	97.652290 
2896.045463  	97.442981 
2901.757584  	97.138013 
2907.469705  	96.889823 
2913.181826  	96.726037 
2918.893948  	96.678301 
2924.606069  	96.816784 
2930.318190  	97.010372 
2936.030311  	97.166499 
2941.742433  	97.304677 
2947.454554  	97.370962 
2953.166675  	97.361847 
2958.878796  	97.326387 
2964.590918  	97.317346 
2970.303039  	97.354857 
2976.015160  	97.382210 
2981.727281  	97.465185 
2987.439402  	97.643910 
2993.151524  	97.743113 
2998.863645  	97.774600 
3004.575766  	97.842428 
3010.287887  	97.853067 
3016.000009  	97.842091 
3021.712130  	97.874689 
3027.424251  	97.849921 
3033.136372  	97.824884 
3038.848493  	97.846575 
3044.560615  	97.820727 
3050.272736  	97.797972 
3055.984857  	97.791796 
3061.696978  	97.772409 
3067.409100  	97.804005 
3073.121221  	97.812228 
3078.833342  	97.775683 
3084.545463  	97.790879 
3090.257585  	97.801829 
3095.969706  	97.795019 
3101.681827  	97.795176 
3107.393948  	97.776651 
3113.106069  	97.793434 
3118.818191  	97.798547 
3124.530312  	97.775039 
3130.242433  	97.815861 
3135.954554  	97.810787 
3141.666676  	97.759672 
3147.378797  	97.775134 
3153.090918  	97.744802 
3158.803039  	97.716823 
3164.515161  	97.737345 
3170.227282  	97.672561 
3175.939403  	97.671689 
3181.651524  	97.748321 
3187.363645  	97.707177 
3193.075767  	97.675729 
3198.787888  	97.662950 
3204.500009  	97.612124 
3210.212130  	97.662053 
3215.924252  	97.666475 
3221.636373  	97.576806 
3227.348494  	97.605730 
3233.060615  	97.637823 
3238.772736  	97.604880 
3244.484858  	97.620279 
3250.196979  	97.614509 
3255.909100  	97.591794 
3261.621221  	97.586843 
3267.333343  	97.559864 
3273.045464  	97.564527 
3278.757585  	97.582471 
3284.469706  	97.573125 
3290.181828  	97.575161 
3295.893949  	97.568837 
3301.606070  	97.560452 
3307.318191  	97.555462 
3313.030312  	97.537598 
3318.742434  	97.542891 
3324.454555  	97.536500 
3330.166676  	97.512712 
3335.878797  	97.519165 
3341.590919  	97.508795 
3347.303040  	97.501125 
3353.015161  	97.515914 
3358.727282  	97.500510 
3364.439403  	97.509529 
3370.151525  	97.517210 
3375.863646  	97.480178 
3381.575767  	97.505349 
3387.287888  	97.512653 
3393.000010  	97.429297 
3398.712131  	97.429361 
3404.424252  	97.482200 
3410.136373  	97.457550 
3415.848495  	97.423313 
3421.560616  	97.394687 
3427.272737  	97.360161 
3432.984858  	97.377268 
3438.696979  	97.411642 
3444.409101  	97.424094 
3450.121222  	97.435583 
3455.833343  	97.421241 
3461.545464  	97.394307 
3467.257586  	97.425240 
3472.969707  	97.438108 
3478.681828  	97.367534 
3484.393949  	97.365786 
3490.106071  	97.419046 
3495.818192  	97.359886 
3501.530313  	97.311877 
3507.242434  	97.354782 
3512.954555  	97.368398 
3518.666677  	97.395610 
3524.378798  	97.399685 
3530.090919  	97.371452 
3535.803040  	97.445294 
3541.515162  	97.425839 
3547.227283  	97.437606 
3552.939404  	97.421897 
3558.651525  	97.378115 
3564.363646  	97.431562 
3570.075768  	97.532976 
3575.787889  	97.435831 
3581.500010  	97.403763 
3587.212131  	97.523991 
3592.924253  	97.530101 
3598.636374  	97.454109 
3604.348495  	97.512871 
3610.060616  	97.586711 
3615.772738  	97.519112 
3621.484859  	97.537096 
3627.196980  	97.697563 
3632.909101  	97.643994 
3638.621222  	97.453364 
3644.333344  	97.556364 
3650.045465  	97.725886 
3655.757586  	97.677468 
3661.469707  	97.545555 
3667.181829  	97.555293 
3672.893950  	97.513407 
3678.606071  	97.582275 
3684.318192  	97.612371 
3690.030314  	97.640335 
3695.742435  	97.568741 
3701.454556  	97.429923 
3707.166677  	97.385561 
3712.878798  	97.473888 
3718.590920  	97.448499 
3724.303041  	97.283352 
3730.015162  	97.249480 
3735.727283  	97.436569 
3741.439405  	97.542637 
3747.151526  	97.597456 
3752.863647  	97.752139 
3758.575768  	97.698316 
3764.287889  	97.495330 
3770.000011  	97.412485 
3775.712132  	97.514805 
3781.424253  	97.478418 
3787.136374  	97.345264 
3792.848496  	97.437468 
3798.560617  	97.462125 
3804.272738  	97.376180 
3809.984859  	97.515862 
3815.696981  	97.481347 
3821.409102  	97.202369 
3827.121223  	97.339243 
3832.833344  	97.313698 
3838.545465  	97.120812 
3844.257587  	97.318393 
3849.969708  	97.301444 
3855.681829  	97.160068 
3861.393950  	97.324976 
3867.106072  	97.263076 
3872.818193  	97.160740 
3878.530314  	97.221099 
3884.242435  	97.139793 
3889.954557  	97.146433 
3895.666678  	97.271049 
3901.378799  	97.229091 
3907.090920  	97.309494 
3912.803041  	97.297673 
3918.515163  	97.157542 
3924.227284  	97.150734 
3929.939405  	97.193176 
3935.651526  	97.171073 
3941.363648  	97.167480 
3947.075769  	97.140881 
3952.787890  	97.112896 
3958.500011  	97.081174 
3964.212132  	97.012277 
3969.924254  	97.018530 
3975.636375  	96.992134 
3981.348496  	96.954327 
3987.060617  	97.047174 
3992.772739  	97.011907 
3998.484860  	96.959198 