##TITLE=No Description
##DATA TYPE=INFRARED SPECTRUM
##XUNITS=1/CM
##YUNITS=%T
399.848486  	95.335005 
405.560607  	100.049896 
411.272728  	109.751675 
416.984850  	91.775821 
422.696971  	97.235264 
428.409092  	101.738419 
434.121213  	96.510405 
439.833335  	99.337985 
445.545456  	97.976635 
451.257577  	96.615508 
456.969698  	100.267018 
462.681819  	97.551389 
468.393941  	97.562893 
474.106062  	99.363979 
479.818183  	97.621462 
485.530304  	99.611829 
491.242426  	99.247123 
496.954547  	97.589244 
502.666668  	99.262284 
508.378789  	98.375068 
514.090911  	98.240528 
519.803032  	99.265628 
525.515153  	97.953804 
531.227274  	98.692787 
536.939395  	98.902489 
542.651517  	97.869500 
548.363638  	98.804387 
554.075759  	98.347836 
559.787880  	98.169940 
565.500002  	99.137937 
571.212123  	98.151768 
576.924244  	98.472270 
582.636365  	98.994328 
588.348487  	98.121529 
594.060608  	98.898208 
599.772729  	98.682466 
605.484850  	98.193607 
611.196971  	99.234097 
616.909093  	98.425235 
622.621214  	98.393816 
628.333335  	99.252112 
634.045456  	98.079246 
639.757578  	98.501730 
645.469699  	98.746699 
651.181820  	97.582323 
656.893941  	98.579361 
662.606062  	97.977871 
668.318184  	97.124117 
674.030305  	98.628598 
679.742426  	97.146498 
685.454547  	97.400807 
691.166669  	98.115023 
696.878790  	95.136332 
702.590911  	96.667367 
708.303032  	91.276337 
714.015154  	72.463408 
719.727275  	68.907722 
725.439396  	83.688488 
731.151517  	90.669586 
736.863638  	93.746629 
742.575760  	97.744646 
748.287881  	97.081866 
754.000002  	97.218295 
759.712123  	98.321708 
765.424245  	97.270756 
771.136366  	97.591556 
776.848487  	97.927710 
782.560608  	97.483710 
788.272730  	98.300483 
793.984851  	98.328091 
799.696972  	98.123055 
805.409093  	98.753678 
811.121214  	98.519661 
816.833336  	98.588936 
822.545457  	99.015163 
828.257578  	98.859644 
833.969699  	99.146161 
839.681821  	99.271791 
845.393942  	99.015541 
851.106063  	99.151156 
856.818184  	99.031504 
862.530305  	98.948378 
868.242427  	99.190511 
873.954548  	99.111648 
879.666669  	99.092573 
885.378790  	99.123661 
891.090912  	99.014136 
896.803033  	99.133824 
902.515154  	99.068784 
908.227275  	98.931862 
913.939397  	99.127970 
919.651518  	99.110205 
925.363639  	98.977292 
931.075760  	98.974512 
936.787881  	98.867397 
942.500003  	98.882947 
948.212124  	98.887803 
953.924245  	98.702083 
959.636366  	98.659601 
965.348488  	98.623484 
971.060609  	98.595021 
976.772730  	98.706554 
982.484851  	98.664205 
988.196973  	98.671001 
993.909094  	98.782081 
999.621215  	98.697183 
1005.333336  	98.669481 
1011.045457  	98.642861 
1016.757579  	98.475398 
1022.469700  	98.456998 
1028.181821  	98.420107 
1033.893942  	98.339113 
1039.606064  	98.316843 
1045.318185  	98.205560 
1051.030306  	98.281527 
1056.742427  	98.334585 
1062.454548  	98.151252 
1068.166670  	98.255232 
1073.878791  	98.254792 
1079.590912  	98.027468 
1085.303033  	98.158122 
1091.015155  	98.258942 
1096.727276  	98.358349 
1102.439397  	98.569870 
1108.151518  	98.490543 
1113.863640  	98.503613 
1119.575761  	98.536957 
1125.287882  	98.395529 
1131.000003  	98.558498 
1136.712124  	98.723932 
1142.424246  	98.749975 
1148.136367  	98.850870 
1153.848488  	98.803882 
1159.560609  	98.865208 
1165.272731  	98.974145 
1170.984852  	98.851631 
1176.696973  	98.884454 
1182.409094  	98.901312 
1188.121215  	98.812419 
1193.833337  	98.916489 
1199.545458  	98.869500 
1205.257579  	98.778948 
1210.969700  	98.829499 
1216.681822  	98.724335 
1222.393943  	98.701458 
1228.106064  	98.694031 
1233.818185  	98.539975 
1239.530307  	98.508707 
1245.242428  	98.364352 
1250.954549  	98.227162 
1256.666670  	98.217542 
1262.378791  	97.985059 
1268.090913  	97.948722 
1273.803034  	98.047619 
1279.515155  	97.932813 
1285.227276  	97.960992 
1290.939398  	97.796302 
1296.651519  	97.419765 
1302.363640  	97.377704 
1308.075761  	97.338603 
1313.787883  	97.466025 
1319.500004  	97.867166 
1325.212125  	98.000375 
1330.924246  	98.125317 
1336.636367  	98.017166 
1342.348489  	97.445498 
1348.060610  	97.242461 
1353.772731  	96.996246 
1359.484852  	96.579915 
1365.196974  	96.406593 
1370.909095  	95.960151 
1376.621216  	95.850769 
1382.333337  	96.774812 
1388.045458  	97.886327 
1393.757580  	98.267070 
1399.469701  	97.841790 
1405.181822  	97.925520 
1410.893943  	98.017124 
1416.606065  	97.333784 
1422.318186  	97.137678 
1428.030307  	96.287566 
1433.742428  	94.221224 
1439.454550  	93.181327 
1445.166671  	91.899187 
1450.878792  	89.070456 
1456.590913  	83.528337 
1462.303034  	74.620288 
1468.015156  	66.550790 
1473.727277  	76.064029 
1479.439398  	95.254320 
1485.151519  	97.186418 
1490.863641  	96.666814 
1496.575762  	98.222903 
1502.287883  	97.671739 
1508.000004  	97.800505 
1513.712126  	98.197943 
1519.424247  	97.782121 
1525.136368  	98.131684 
1530.848489  	98.059675 
1536.560610  	97.943312 
1542.272732  	97.898587 
1547.984853  	97.790148 
1553.696974  	98.074717 
1559.409095  	97.772426 
1565.121217  	97.655642 
1570.833338  	97.920561 
1576.545459  	97.451039 
1582.257580  	97.416747 
1587.969701  	97.510841 
1593.681823  	97.191103 
1599.393944  	97.314634 
1605.106065  	97.312042 
1610.818186  	97.194157 
1616.530308  	97.397466 
1622.242429  	97.133153 
1627.954550  	97.144699 
1633.666671  	97.243779 
1639.378793  	96.874636 
1645.090914  	97.010444 
1650.803035  	97.050521 
1656.515156  	97.339372 
1662.227277  	97.820635 
1667.939399  	97.763991 
1673.651520  	97.775314 
1679.363641  	98.173278 
1685.075762  	98.090290 
1690.787884  	98.390616 
1696.500005  	98.808699 
1702.212126  	98.475244 
1707.924247  	98.812671 
1713.636369  	99.058188 
1719.348490  	98.608479 
1725.060611  	98.940275 
1730.772732  	99.024535 
1736.484853  	98.685658 
1742.196975  	99.093541 
1747.909096  	99.126183 
1753.621217  	99.090028 
1759.333338  	99.373008 
1765.045460  	99.280235 
1770.757581  	99.271559 
1776.469702  	99.375651 
1782.181823  	99.330375 
1787.893944  	99.489537 
1793.606066  	99.379862 
1799.318187  	99.301328 
1805.030308  	99.540884 
1810.742429  	99.434338 
1816.454551  	99.441788 
1822.166672  	99.516559 
1827.878793  	99.237088 
1833.590914  	99.453180 
1839.303036  	99.548780 
1845.015157  	99.348051 
1850.727278  	99.577425 
1856.439399  	99.549590 
1862.151520  	99.457414 
1867.863642  	99.524326 
1873.575763  	99.362264 
1879.287884  	99.520679 
1885.000005  	99.530050 
1890.712127  	99.283810 
1896.424248  	99.461732 
1902.136369  	99.370314 
1907.848490  	99.424677 
1913.560611  	99.660315 
1919.272733  	99.269458 
1924.984854  	99.389379 
1930.696975  	99.588202 
1936.409096  	99.227564 
1942.121218  	99.449211 
1947.833339  	99.381120 
1953.545460  	99.225034 
1959.257581  	99.524490 
1964.969703  	99.086835 
1970.681824  	99.426723 
1976.393945  	99.474821 
1982.106066  	98.863138 
1987.818187  	99.640537 
1993.530309  	99.410227 
1999.242430  	99.098612 
2004.954551  	99.753171 
2010.666672  	98.873204 
2016.378794  	98.775829 
2022.090915  	99.257638 
2027.803036  	98.457111 
2033.515157  	99.337586 
2039.227279  	99.628839 
2044.939400  	99.138250 
2050.651521  	99.552894 
2056.363642  	99.449268 
2062.075763  	99.542382 
2067.787885  	99.670203 
2073.500006  	99.333218 
2079.212127  	99.591041 
2084.924248  	99.598239 
2090.636370  	99.486925 
2096.348491  	99.798661 
2102.060612  	99.420735 
2107.772733  	99.301786 
2113.484854  	99.584361 
2119.196976  	99.271958 
2124.909097  	99.459634 
2130.621218  	99.566063 
2136.333339  	98.893895 
2142.045461  	99.246248 
2147.757582  	99.296522 
2153.469703  	98.802416 
2159.181824  	99.191808 
2164.893946  	98.858576 
2170.606067  	99.400468 
2176.318188  	99.635505 
2182.030309  	99.040327 
2187.742430  	99.584217 
2193.454552  	99.406714 
2199.166673  	99.243064 
2204.878794  	99.812901 
2210.590915  	99.266733 
2216.303037  	99.270007 
2222.015158  	99.652278 
2227.727279  	99.148457 
2233.439400  	99.367822 
2239.151522  	99.447769 
2244.863643  	99.167025 
2250.575764  	99.480288 
2256.287885  	99.755962 
2262.000006  	99.891972 
2267.712128  	99.981522 
2273.424249  	99.909877 
2279.136370  	99.844115 
2284.848491  	99.596049 
2290.560613  	99.250455 
2296.272734  	99.173458 
2301.984855  	99.016913 
2307.696976  	98.830988 
2313.409097  	98.832579 
2319.121219  	98.721663 
2324.833340  	98.375200 
2330.545461  	98.509077 
2336.257582  	99.186644 
2341.969704  	98.943233 
2347.681825  	98.244065 
2353.393946  	99.197583 
2359.106067  	100.974758 
2364.818189  	101.214849 
2370.530310  	100.917518 
2376.242431  	100.128077 
2381.954552  	99.248619 
2387.666673  	99.382465 
2393.378795  	99.307093 
2399.090916  	99.204177 
2404.803037  	99.329429 
2410.515158  	99.140133 
2416.227280  	99.151127 
2421.939401  	99.293708 
2427.651522  	99.132066 
2433.363643  	99.227594 
2439.075765  	99.243881 
2444.787886  	99.143922 
2450.500007  	99.287107 
2456.212128  	99.173488 
2461.924249  	99.170042 
2467.636371  	99.246466 
2473.348492  	99.042756 
2479.060613  	99.166871 
2484.772734  	99.147678 
2490.484856  	98.979388 
2496.196977  	99.216815 
2501.909098  	99.072884 
2507.621219  	98.975528 
2513.333340  	99.164394 
2519.045462  	98.924944 
2524.757583  	98.981736 
2530.469704  	99.033902 
2536.181825  	98.788032 
2541.893947  	98.998437 
2547.606068  	98.873801 
2553.318189  	98.676802 
2559.030310  	98.889642 
2564.742432  	98.647844 
2570.454553  	98.639516 
2576.166674  	98.748588 
2581.878795  	98.434669 
2587.590916  	98.555041 
2593.303038  	98.509636 
2599.015159  	98.299587 
2604.727280  	98.476025 
2610.439401  	98.255645 
2616.151523  	98.141242 
2621.863644  	98.186311 
2627.575765  	97.877352 
2633.287886  	97.923661 
2639.000007  	97.919132 
2644.712129  	97.787795 
2650.424250  	97.968837 
2656.136371  	97.821861 
2661.848492  	97.772657 
2667.560614  	97.938788 
2673.272735  	97.728607 
2678.984856  	97.828617 
2684.696977  	97.931771 
2690.409099  	97.736695 
2696.121220  	97.976351 
2701.833341  	97.906575 
2707.545462  	97.726371 
2713.257583  	97.925860 
2718.969705  	97.631708 
2724.681826  	97.573404 
2730.393947  	97.665903 
2736.106068  	97.298163 
2741.818190  	97.495323 
2747.530311  	97.466231 
2753.242432  	97.192072 
2758.954553  	97.434294 
2764.666675  	96.979760 
2770.378796  	96.756949 
2776.090917  	96.765554 
2781.803038  	95.870285 
2787.515159  	95.721573 
2793.227281  	95.109463 
2798.939402  	93.899249 
2804.651523  	93.749175 
2810.363644  	91.999871 
2816.075766  	90.465610 
2821.787887  	89.115802 
2827.500008  	84.057122 
2833.212129  	79.287646 
2838.924250  	65.356485 
2844.636372  	37.592575 
2850.348493  	32.489803 
2856.060614  	59.533587 
2861.772735  	77.660116 
2867.484857  	80.338833 
2873.196978  	81.354445 
2878.909099  	76.939019 
2884.621220  	70.600751 
2890.333342  	64.201695 
2896.045463  	56.331709 
2901.757584  	50.127536 
2907.469705  	38.600273 
2913.181826  	26.404492 
2918.893948  	31.969856 
2924.606069  	49.772768 
2930.318190  	63.931760 
2936.030311  	75.226966 
2941.742433  	83.744704 
2947.454554  	88.348392 
2953.166675  	90.629836 
2958.878796  	90.919582 
2964.590918  	92.103213 
2970.303039  	94.152684 
2976.015160  	95.137109 
2981.727281  	96.170210 
2987.439402  	96.706096 
2993.151524  	96.790165 
2998.863645  	97.266478 
3004.575766  	97.231197 
3010.287887  	97.311540 
3016.000009  	97.617964 
3021.712130  	97.496088 
3027.424251  	97.694852 
3033.136372  	97.747093 
3038.848493  	97.642122 
3044.560615  	97.918383 
3050.272736  	97.814836 
3055.984857  	97.831725 
3061.696978  	98.050009 
3067.409100  	97.863201 
3073.121221  	98.007548 
3078.833342  	98.051634 
3084.545463  	97.875578 
3090.257585  	98.161970 
3095.969706  	98.145708 
3101.681827  	98.062421 
3107.393948  	98.252914 
3113.106069  	98.138877 
3118.818191  	98.200557 
3124.530312  	98.251522 
3130.242433  	98.090533 
3135.954554  	98.227371 
3141.666676  	98.160969 
3147.378797  	98.096107 
3153.090918  	98.223832 
3158.803039  	98.010198 
3164.515161  	98.031751 
3170.227282  	98.091657 
3175.939403  	97.858627 
3181.651524  	97.970354 
3187.363645  	97.918958 
3193.075767  	97.755197 
3198.787888  	97.882452 
3204.500009  	97.726895 
3210.212130  	97.746865 
3215.924252  	97.895220 
3221.636373  	97.694002 
3227.348494  	97.819094 
3233.060615  	97.880812 
3238.772736  	97.724279 
3244.484858  	97.898659 
3250.196979  	97.827398 
3255.909100  	97.743116 
3261.621221  	97.866286 
3267.333343  	97.706895 
3273.045464  	97.751151 
3278.757585  	97.823121 
3284.469706  	97.660279 
3290.181828  	97.760189 
3295.893949  	97.759983 
3301.606070  	97.704321 
3307.318191  	97.786875 
3313.030312  	97.654059 
3318.742434  	97.692816 
3324.454555  	97.741414 
3330.166676  	97.571185 
3335.878797  	97.682801 
3341.590919  	97.671026 
3347.303040  	97.547987 
3353.015161  	97.681829 
3358.727282  	97.608406 
3364.439403  	97.586111 
3370.151525  	97.675465 
3375.863646  	97.527787 
3381.575767  	97.577386 
3387.287888  	97.588731 
3393.000010  	97.437943 
3398.712131  	97.597197 
3404.424252  	97.671780 
3410.136373  	97.633700 
3415.848495  	97.712552 
3421.560616  	97.691110 
3427.272737  	97.744906 
3432.984858  	97.762545 
3438.696979  	97.731912 
3444.409101  	97.880435 
3450.121222  	97.826727 
3455.833343  	97.769040 
3461.545464  	97.904419 
3467.257586  	97.896635 
3472.969707  	97.971683 
3478.681828  	97.996063 
3484.393949  	97.906531 
3490.106071  	98.082785 
3495.818192  	98.101658 
3501.530313  	98.033966 
3507.242434  	98.149411 
3512.954555  	98.072802 
3518.666677  	98.167972 
3524.378798  	98.340797 
3530.090919  	98.172435 
3535.803040  	98.287761 
3541.515162  	98.441215 
3547.227283  	98.321791 
3552.939404  	98.322375 
3558.651525  	98.381523 
3564.363646  	98.419875 
3570.075768  	98.447144 
3575.787889  	98.367366 
3581.500010  	98.428840 
3587.212131  	98.487710 
3592.924253  	98.359417 
3598.636374  	98.309771 
3604.348495  	98.330791 
3610.060616  	98.391160 
3615.772738  	98.392808 
3621.484859  	98.438960 
3627.196980  	98.639305 
3632.909101  	98.456006 
3638.621222  	98.339903 
3644.333344  	98.716388 
3650.045465  	98.760249 
3655.757586  	98.385030 
3661.469707  	98.537457 
3667.181829  	98.671476 
3672.893950  	98.532032 
3678.606071  	98.482430 
3684.318192  	98.629419 
3690.030314  	98.692453 
3695.742435  	98.509347 
3701.454556  	98.517969 
3707.166677  	98.611407 
3712.878798  	98.469617 
3718.590920  	98.459722 
3724.303041  	98.438852 
3730.015162  	98.328351 
3735.727283  	98.450081 
3741.439405  	98.543990 
3747.151526  	98.580172 
3752.863647  	98.607841 
3758.575768  	98.564260 
3764.287889  	98.642060 
3770.000011  	98.585630 
3775.712132  	98.511832 
3781.424253  	98.612394 
3787.136374  	98.420353 
3792.848496  	98.407848 
3798.560617  	98.703747 
3804.272738  	98.226460 
3809.984859  	98.377833 
3815.696981  	98.794564 
3821.409102  	98.135499 
3827.121223  	98.314717 
3832.833344  	98.714990 
3838.545465  	98.071893 
3844.257587  	98.322559 
3849.969708  	98.645410 
3855.681829  	98.136541 
3861.393950  	98.416875 
3867.106072  	98.515636 
3872.818193  	98.178786 
3878.530314  	98.446740 
3884.242435  	98.356667 
3889.954557  	98.189521 
3895.666678  	98.531566 
3901.378799  	98.405615 
3907.090920  	98.258933 
3912.803041  	98.453400 
3918.515163  	98.376126 
3924.227284  	98.321773 
3929.939405  	98.343780 
3935.651526  	98.286580 
3941.363648  	98.363626 
3947.075769  	98.352042 
3952.787890  	98.287196 
3958.500011  	98.328278 
3964.212132  	98.278915 
3969.924254  	98.278297 
3975.636375  	98.299927 
3981.348496  	98.245557 
3987.060617  	98.290082 
3992.772739  	98.246794 
3998.484860  	98.187667 