wavenumber,absorbance
399.1927,97.54274052345967
401.1211,98.01620157208367
403.0496,98.63248737984105
404.9781,99.23400893199202
406.9065,99.6966755799015
408.835,99.95752722120123
410.7635,100.06650088417526
412.6919,99.94958642791703
414.6204,99.68666781148207
416.5489,99.35580598501937
418.4773,99.06464043571161
420.4058,98.94234273506963
422.3343,98.98901037725146
424.2627,99.18701675016493
426.1912,99.47353863232745
428.1197,99.76923674327375
430.0481,100.04694079073157
431.9766,100.24094841736233
433.9051,100.38813067701652
435.8335,100.44945904260697
437.762,100.44847010184166
439.6905,100.4645361859544
441.6189,100.4466443619886
443.5474,100.42257834979594
445.4759,100.44069754623989
447.4043,100.34845634325401
449.3328,100.22345758517301
451.2613,99.98962816149974
453.1897,99.73072779214358
455.1182,99.507293587699
457.0467,99.43394947425698
458.9751,99.59798162519603
460.9036,99.9381221425237
462.8321,100.36819203531776
464.7605,100.79952087850674
466.689,101.12356348969104
468.6175,101.34630290680728
470.5459,101.48802379848784
472.4744,101.59412673182592
474.4029,101.72797697249425
476.3313,101.86151447034933
478.2598,101.98579982062822
480.1883,102.07593729809375
482.1167,102.16450775395231
484.0452,102.16090347818248
485.9737,102.17061925698388
487.9021,102.1784720463995
489.8306,102.22777490355831
491.7591,102.23386102152442
493.6875,102.25787259719786
495.616,102.22204533438806
497.5445,102.1568690249786
499.4729,102.03589194862431
501.4014,101.91419367815878
503.3299,101.84071817771661
505.2583,101.8102833187053
507.1868,101.81066517222384
509.1153,101.8290247189774
511.0437,101.81665677906318
512.9722,101.78137258834012
514.9007,101.71027539552225
516.8292,101.63840446838459
518.7576,101.57686853717955
520.6861,101.54273717397669
522.6146,101.57177426142253
524.543,101.60398219063792
526.4715,101.64669801653034
528.4,101.73462782255527
530.3284,101.79592701635617
532.2569,101.88751945395796
534.1854,101.97629090562177
536.1138,102.04628982910758
538.0423,102.11439400684543
539.9708,102.12765174179647
541.8992,102.16002341641178
543.8277,102.1551518990906
545.7562,102.17129202850819
547.6846,102.22221150335236
549.6131,102.31788447467872
551.5416,102.4555616534223
553.47,102.60134850159217
555.3985,102.77200826486954
557.327,102.8836566243973
559.2554,102.92363756313722
561.1839,102.95488252193795
563.1124,102.90995889176031
565.0408,102.8187877957116
566.9693,102.70320075164187
568.8978,102.5862924737849
570.8262,102.49954451726931
572.7547,102.37896823053026
574.6832,102.29722445070382
576.6116,102.20308274978076
578.5401,102.15176639036483
580.4686,102.11756366397175
582.397,102.11906573168191
584.3255,102.12610500020722
586.254,102.15585870493906
588.1824,102.13926912092704
590.1109,102.13001989363445
592.0394,102.12883150697056
593.9678,102.08952240938856
595.8963,102.10029515001514
597.8248,102.14969396708157
599.7532,102.16926876594886
601.6817,102.25143621185649
603.6102,102.2808638101924
605.5386,102.31852545188559
607.4671,102.35922942026481
609.3956,102.32680514791434
611.324,102.25767558960428
613.2525,102.14806044658275
615.181,102.03338774314946
617.1094,102.00210064953099
619.0379,101.97631996629049
620.9664,102.02902456395796
622.8948,102.08547251967774
624.8233,102.10444989906908
626.7518,102.09014079370347
628.6802,102.01322206671567
630.6087,101.88176425531155
632.5372,101.71700599209416
634.4656,101.56898238174206
636.3941,101.40826385896686
638.3226,101.20105432140268
640.251,100.99850365459672
642.1795,100.77064846448279
644.108,100.5634926372848
646.0364,100.33672294757012
647.9649,100.1550746183624
649.8934,100.02430083925555
651.8218,100.00139249191291
653.7503,100.04625667339343
655.6788,100.18131830558274
657.6072,100.31264153921622
659.5357,100.39376433294946
661.4642,100.31276590816616
663.3926,100.03691701244422
665.3211,99.62046006712661
667.2496,99.16056938491269
669.178,98.87558742407295
671.1065,98.88459391701265
673.035,99.08626673495372
674.9634,99.36445031436891
676.8919,99.60463144774863
678.8204,99.7153447948699
680.7488,99.74267177774556
682.6773,99.78207016288096
684.6058,99.80044092589488
686.5342,99.89738415395185
688.4627,100.03031758394675
690.3912,100.20613342721649
692.3196,100.36155245177952
694.2481,100.5617356146134
696.1766,100.78801547475575
698.105,101.00736521713637
700.0335,101.24226635922106
701.962,101.41820068491637
703.8904,101.5965253134759
705.8189,101.76462179955256
707.7474,101.90201967549308
709.6758,102.02629532053818
711.6043,102.06049420806926
713.5328,102.03187551241386
715.4612,101.94774564481169
717.3897,101.88544362976401
719.3182,101.81799784652611
721.2466,101.82955228903222
723.1751,101.93688029792352
725.1036,102.04216942611924
727.032,102.15520858823781
728.9605,102.22318727652943
730.889,102.26356830611903
732.8174,102.25648974406701
734.7459,102.25165757158216
736.6744,102.27281594518283
738.6028,102.27096590335826
740.5313,102.29010450222249
742.4598,102.31344467496483
744.3882,102.34117479159025
746.3167,102.36246006088747
748.2452,102.37825048706581
750.1736,102.41056381597167
752.1021,102.41476596847775
754.0306,102.45925231451028
755.959,102.44797942344393
757.8875,102.46395616660571
759.816,102.4845216507926
761.7444,102.4846043700361
763.6729,102.51143014595407
765.6014,102.48207143090276
767.5298,102.4896705086935
769.4583,102.47460717181772
771.3868,102.44931906502259
773.3152,102.44923276660532
775.2437,102.42228453668778
777.1722,102.40471790551214
779.1006,102.36923504153964
781.0291,102.33163235949281
782.9576,102.25736527949437
784.886,102.15530818162058
786.8145,102.05360620822424
788.743,101.94899659595887
790.6714,101.81755263730723
792.5999,101.68440131526097
794.5284,101.5108304395569
796.4568,101.33075673875601
798.3853,101.04761969090795
800.3138,100.68179924599043
802.2422,100.22001849610358
804.1707,99.75940178908093
806.0992,99.37207218215191
808.0276,99.18496327962109
809.9561,99.22673580903263
811.8846,99.51185553744081
813.813,99.96739950306798
815.7415,100.46982979586139
817.67,100.90879151735555
819.5984,101.22559308950692
821.5269,101.3485774284834
823.4554,101.36544054999507
825.3839,101.32354018224301
827.3123,101.21036404025354
829.2408,100.98481481473773
831.1693,100.49959202985555
833.0977,99.732932619942
835.0262,98.66056506537966
836.9547,97.485421810362
838.8831,96.50902683931035
840.8116,96.05992078270263
842.7401,96.27025939091017
844.6685,97.10576680116637
846.597,98.26857138523984
848.5255,99.44486050046262
850.4539,100.34543817568178
852.3824,100.9408119810171
854.3109,101.24094484544491
856.2393,101.34430014974986
858.1678,101.46126258730777
860.0963,101.5617690803503
862.0247,101.64962562974448
863.9532,101.7390272818567
865.8817,101.80867119422413
867.8101,101.85902209120597
869.7386,101.90890987030953
871.6671,101.94823996193671
873.5955,102.02752331564784
875.524,102.06879618592038
877.4525,102.07386635740795
879.3809,102.07233575672198
881.3094,102.07821064876453
883.2379,102.03624212030186
885.1663,101.98141953163321
887.0948,101.85580671582855
889.0233,101.64791538751071
890.9517,101.30794749143656
892.8802,100.85074402621537
894.8087,100.37116636044605
896.7371,99.98097061602664
898.6656,99.81420379379107
900.5941,99.86731140742215
902.5225,100.18493183645701
904.451,100.6410368596155
906.3795,101.1294743270373
908.3079,101.51763720194154
910.2364,101.82388778596794
912.1649,101.99823891023834
914.0934,102.08888422087044
916.0219,102.14389113828302
917.9503,102.19397400166268
919.8788,102.2379904634564
921.8073,102.23827407243574
923.7357,102.3085591230825
925.6642,102.30590093322688
927.5927,102.29547591417614
929.5211,102.27909046624812
931.4496,102.24193741777349
933.3781,102.15983896060966
935.3065,102.04569315532218
937.235,101.9946449286136
939.1635,101.90889459342768
941.0919,101.90120172711717
943.0204,101.91807950152216
944.9489,102.01536377054246
946.8773,102.09586343688892
948.8058,102.17608843834476
950.7343,102.19454746633853
952.6627,102.19511145289684
954.5912,102.11789818164536
956.5197,102.01101846229565
958.4481,101.81771912440358
960.3766,101.50118972881539
962.3051,100.93503916697685
964.2335,99.91389984177277
966.162,98.5387405029932
968.0905,96.96046891362603
970.0189,95.51647724967715
971.9474,94.65792953679754
973.8759,94.63820550970738
975.8043,95.51140055887848
977.7328,96.98533473148265
979.6613,98.72108130679618
981.5897,100.21381835954871
983.5182,101.22719821796002
985.4467,101.62166383082031
987.3751,101.33439280212612
989.3036,100.47465741528598
991.2321,99.23043282494203
993.1605,97.8999377315269
995.089,96.78380426561853
997.0175,96.23896298440332
998.9459,96.43907743805975
1000.8744,97.28603174191244
1002.8029,98.58659322247135
1004.7313,99.97255120190819
1006.6598,101.15794351589317
1008.5883,101.99557828548708
1010.5167,102.5021311280761
1012.4452,102.78138373597903
1014.3737,102.92692694723709
1016.3021,102.99880395611449
1018.2306,103.02687007011446
1020.1591,103.01974516357724
1022.0875,102.94509084917004
1024.016,102.84742644740808
1025.9445,102.73987707748874
1027.8729,102.61442332983836
1029.8014,102.50356723497298
1031.7299,102.33395299724143
1033.6583,102.20743260724969
1035.5868,102.06247188334206
1037.5153,101.90711055044795
1039.4437,101.80673252977404
1041.3722,101.70016119359806
1043.3007,101.65040827762004
1045.2291,101.7140631952436
1047.1576,101.78944109416562
1049.0861,101.96850934461806
1051.0145,102.14815989102263
1052.943,102.3745955079619
1054.8715,102.56568509399317
1056.7999,102.73046614196149
1058.7284,102.89312162388971
1060.6569,103.03785922596906
1062.5853,103.18759077367707
1064.5138,103.32619644504815
1066.4423,103.45935306455608
1068.3707,103.59856703855272
1070.2992,103.7327852149773
1072.2277,103.85749654456993
1074.1561,103.96635856076094
1076.0846,104.07362208526197
1078.0131,104.20964531848102
1079.9415,104.2931055081545
1081.87,104.39047706400065
1083.7985,104.480788106877
1085.7269,104.54256930449844
1087.6554,104.61022025995959
1089.5839,104.62820344185991
1091.5123,104.60820358298344
1093.4408,104.51698457149108
1095.3693,104.36303770889086
1097.2977,104.19431848374114
1099.2262,104.02039964983801
1101.1547,103.90584317888398
1103.0831,103.88560928168299
1105.0116,103.95409346506419
1106.9401,104.09405150485966
1108.8685,104.26332266463106
1110.797,104.4057198866853
1112.7255,104.52480441705318
1114.6539,104.5630687638907
1116.5824,104.58641631264074
1118.5109,104.54850541419839
1120.4393,104.5064949498165
1122.3678,104.45493836776281
1124.2963,104.39043314465063
1126.2247,104.29029376591366
1128.1532,104.21093096323835
1130.0817,104.10980178912081
1132.0101,103.94701894180568
1133.9386,103.79687280475396
1135.8671,103.55644435770597
1137.7955,103.30177493156364
1139.724,102.9843863055184
1141.6525,102.57243284897677
1143.5809,102.11714489262316
1145.5094,101.59628164992537
1147.4379,101.08448134932208
1149.3663,100.53764227755488
1151.2948,100.05267290277853
1153.2233,99.60307324899485
1155.1517,99.17136568251242
1157.0802,98.67473525811349
1159.0087,98.09398162637252
1160.9371,97.38778507788187
1162.8656,96.68907923924291
1164.7941,96.13651101866658
1166.7225,95.93486578715573
1168.651,96.2002255193946
1170.5795,96.93251346063077
1172.5079,98.0154410301404
1174.4364,99.24766663181644
1176.3649,100.36656292817472
1178.2933,101.23031461549323
1180.2218,101.85255481792744
1182.1503,102.21214519822487
1184.0787,102.39058925589181
1186.0072,102.47814946328991
1187.9357,102.51292351512383
1189.8641,102.52353465300436
1191.7926,102.5500029794934
1193.7211,102.53590885555228
1195.6495,102.53266533338456
1197.578,102.55032721186919
1199.5065,102.53984501106859
1201.4349,102.53170825001281
1203.3634,102.51542061805186
1205.2919,102.50119994860766
1207.2203,102.45619589307415
1209.1488,102.38029505111479
1211.0773,102.28982224591398
1213.0057,102.16705396928793
1214.9342,102.10023721914234
1216.8627,102.03569893045807
1218.7911,102.01893953229386
1220.7196,102.05843046087323
1222.6481,102.09560322832812
1224.5765,102.2183068794653
1226.505,102.33369904354942
1228.4335,102.42033154453947
1230.3619,102.47983093886873
1232.2904,102.54268963486898
1234.2189,102.54776871905847
1236.1473,102.52228895429555
1238.0758,102.50314817204516
1240.0043,102.4602158571205
1241.9327,102.381052926463
1243.8612,102.28100564803431
1245.7897,102.11078260175162
1247.7181,101.87904771017345
1249.6466,101.59740579483599
1251.5751,101.33314069233029
1253.5035,101.12294292938046
1255.432,101.03875832761588
1257.3605,101.08384892531512
1259.2889,101.2685741560622
1261.2174,101.49935387986267
1263.1459,101.74117370844172
1265.0743,101.93489610700973
1267.0028,102.04445371536016
1268.9313,102.12920247837324
1270.8597,102.16163130329318
1272.7882,102.18479095764393
1274.7167,102.20138904125216
1276.6451,102.21921043561484
1278.5736,102.17031135812033
1280.5021,102.098985587145
1282.4305,102.03699300196897
1284.359,101.91949396459039
1286.2875,101.7748248095749
1288.2159,101.6142117014064
1290.1444,101.45560810478197
1292.0729,101.29481338429218
1294.0013,101.11697183299357
1295.9298,100.97412453679544
1297.8583,100.77939495618367
1299.7867,100.65906882637293
1301.7152,100.59811379959984
1303.6437,100.68151484415021
1305.5721,100.820835933722
1307.5006,101.06560545366625
1309.4291,101.3072432946544
1311.3575,101.49190272034153
1313.286,101.62238872677455
1315.2145,101.63794394391316
1317.1429,101.60019136876302
1319.0714,101.5011758118145
1320.9999,101.42428594064515
1322.9283,101.31096000946344
1324.8568,101.20171405948678
1326.7853,101.09429438828784
1328.7137,100.97091236754041
1330.6422,100.87475682379022
1332.5707,100.78262596011328
1334.4991,100.64044380907025
1336.4276,100.58313328082573
1338.3561,100.50353132064208
1340.2845,100.4585429603934
1342.213,100.42220507655757
1344.1415,100.29670064716692
1346.0699,100.02550056635411
1347.9984,99.5120028433822
1349.9269,98.69838021972326
1351.8553,97.64196224052563
1353.7838,96.40836075333719
1355.7123,95.25411447033196
1357.6407,94.3735576603406
1359.5692,93.86071958124714
1361.4977,93.60142145244059
1363.4261,93.13422732430011
1365.3546,91.83095757719468
1367.2831,89.21646346845665
1369.2115,85.21765784198655
1371.14,80.50452549347501
1373.0685,76.2742873152314
1374.9969,73.86817365473766
1376.9254,74.16622232275691
1378.8539,77.12190842069363
1380.7823,81.89661428071665
1382.7108,87.2161526027289
1384.6393,92.01624964066393
1386.5677,95.59237788345405
1388.4962,97.85241375310214
1390.4247,99.04799943679865
1392.3531,99.57535818953296
1394.2816,99.81128690274909
1396.2101,99.99147972155967
1398.1385,100.18584279670807
1400.067,100.43342668780656
1401.9955,100.65377394319053
1403.924,100.86686920781959
1405.8524,101.02918781784506
1407.7809,101.12211028641904
1409.7094,101.10242117960985
1411.6378,100.93311279742646
1413.5663,100.68636742463536
1415.4948,100.37612327706037
1417.4232,100.05530413094773
1419.3517,99.90564052300498
1421.2802,99.78780395941338
1423.2086,99.7213149905509
1425.1371,99.47404870564193
1427.0656,98.90814856106344
1428.994,97.98750310826796
1430.9225,96.79624568795722
1432.851,95.48098354554288
1434.7794,94.2408775521621
1436.7079,93.16037103159233
1438.6364,92.11880117220691
1440.5648,90.8548348004891
1442.4933,89.12021426346267
1444.4218,86.90447980170129
1446.3502,84.34758261170356
1448.2787,81.70015354576857
1450.2072,79.34326163906844
1452.1356,77.55038197303713
1454.0641,76.45440815333656
1455.9926,76.30381378601288
1457.921,76.98448096241994
1459.8495,78.44683928572452
1461.778,80.41706321355922
1463.7064,82.6770246811922
1465.6349,85.04372405253766
1467.5634,87.47691974218435
1469.4918,89.95877845790652
1471.4203,92.34735826182859
1473.3488,94.63250334181706
1475.2772,96.5579207457737
1477.2057,98.07188426611744
1479.1342,99.15781256681463
1481.0626,99.79235404573544
1482.9911,100.12395069697152
1484.9196,100.20418437144293
1486.848,100.20070955341205
1488.7765,100.20396557400728
1490.705,100.29454757693112
1492.6334,100.49416886554393
1494.5619,100.73108627898917
1496.4904,100.92127004208454
1498.4188,100.95953781912635
1500.3473,100.78370259588996
1502.2758,100.4733700572191
1504.2042,100.06567902407734
1506.1327,99.71419879820733
1508.0612,99.5553614119003
1509.9896,99.6157437349246
1511.9181,99.78041688075679
1513.8466,99.92368945988459
1515.775,99.9588307987956
1517.7035,99.85418195898518
1519.632,99.7909010827027
1521.5604,99.82560197544574
1523.4889,100.05384957521241
1525.4174,100.36345690373429
1527.3458,100.68729362341844
1529.2743,100.91583050430064
1531.2028,101.00245393250896
1533.1312,100.91407611001851
1535.0597,100.66753856945199
1536.9882,100.40643311891387
1538.9166,100.15939042957672
1540.8451,100.11880458971669
1542.7736,100.35915963379328
1544.702,100.79551780110681
1546.6305,101.19079235533535
1548.559,101.40429967117299
1550.4874,101.39883268529424
1552.4159,101.16869843497476
1554.3444,100.83121410907913
1556.2728,100.52449570654917
1558.2013,100.49917318821032
1560.1298,100.74455631509176
1562.0582,101.18338103147832
1563.9867,101.57194037083732
1565.9152,101.8540994235413
1567.8436,101.98789510594935
1569.7721,101.99939300188132
1571.7006,102.0161514787314
1573.629,102.0562085243712
1575.5575,102.1785764380219
1577.486,102.39796757245888
1579.4144,102.66105120084082
1581.3429,102.87895555985551
1583.2714,103.0156809136022
1585.1998,103.09104761812041
1587.1283,103.09423843563313
1589.0568,103.06329622982128
1590.9852,103.0338598400708
1592.9137,102.97893001601786
1594.8422,102.99076460732361
1596.7706,102.97617991044423
1598.6991,102.96575741065749
1600.6276,102.93797750269545
1602.556,102.8932485288334
1604.4845,102.82773803808217
1606.413,102.77683339199258
1608.3414,102.7167094303279
1610.2699,102.60743866979551
1612.1984,102.49398614957265
1614.1268,102.35112700962844
1616.0553,102.21782525453581
1617.9838,102.11066166426033
1619.9122,102.04629757559296
1621.8407,102.05946195958947
1623.7692,102.13103264540163
1625.6976,102.18181995230181
1627.6261,102.20952496627076
1629.5546,102.15420321797262
1631.483,102.03659948541679
1633.4115,101.88709617992724
1635.34,101.82167597239807
1637.2684,101.81734409886482
1639.1969,101.8360378735963
1641.1254,101.82982061488407
1643.0538,101.72095036362145
1644.9823,101.48428935492595
1646.9108,101.14127712992439
1648.8392,100.85199342442343
1650.7677,100.79752243180049
1652.6962,100.99586904488002
1654.6246,101.38379405724208
1656.5531,101.85917160626292
1658.4816,102.2062004061457
1660.41,102.3862560865447
1662.3385,102.40349712100232
1664.267,102.27632724391077
1666.1954,102.06581604130355
1668.1239,101.8782929599678
1670.0524,101.74654384204443
1671.9808,101.71067259089206
1673.9093,101.71136931650898
1675.8378,101.69352489092638
1677.7662,101.56797896145412
1679.6947,101.36951834637318
1681.6232,101.1905066207227
1683.5516,101.14876576894979
1685.4801,101.29179194728113
1687.4086,101.502957842845
1689.337,101.7407687652085
1691.2655,101.80154288025983
1693.194,101.6621541415502
1695.1224,101.37054296916835
1697.0509,101.04487216505865
1698.9794,100.85819509555793
1700.9078,100.93693062933981
1702.8363,101.24261018427322
1704.7648,101.65917020991414
1706.6932,101.97522983496516
1708.6217,102.10496086584956
1710.5502,102.05308597332191
1712.4786,101.90424419184511
1714.4071,101.72855395695663
1716.3356,101.69767407411354
1718.264,101.87243536325029
1720.1925,102.19865445494726
1722.121,102.59716791021484
1724.0494,102.7628912159655
1725.9779,102.76764231928139
1727.9064,102.57080745351219
1729.8348,102.19030576756275
1731.7633,101.81649246473559
1733.6918,101.51497603430619
1735.6202,101.39022333045267
1737.5487,101.38567297208022
1739.4772,101.39390749734434
1741.4056,101.32053750552352
1743.3341,101.21305363678928
1745.2626,101.13597967289945
1747.191,101.14781935218477
1749.1195,101.25955059800927
1751.048,101.51589457005878
1752.9764,101.8291133074549
1754.9049,102.14294638374713
1756.8334,102.36934821525949
1758.7618,102.54832153410571
1760.6903,102.61836445725831
1762.6188,102.6156490482313
1764.5472,102.56865077838088
1766.4757,102.45011497012732
1768.4042,102.32295078647492
