wavenumber,absorbance
399.1927,97.49274052345967
401.1211,97.96620157208368
403.0496,98.58248737984106
404.9781,99.18400893199203
406.9065,99.6466755799015
408.835,99.90752722120124
410.7635,100.01650088417526
412.6919,99.89958642791703
414.6204,99.63666781148207
416.5489,99.30580598501938
418.4773,99.01464043571161
420.4058,98.89234273506963
422.3343,98.93901037725146
424.2627,99.13701675016493
426.1912,99.42353863232745
428.1197,99.71923674327375
430.0481,99.99694079073157
431.9766,100.19094841736234
433.9051,100.33813067701652
435.8335,100.39945904260698
437.762,100.39847010184167
439.6905,100.4145361859544
441.6189,100.3966443619886
443.5474,100.37257834979594
445.4759,100.39069754623989
447.4043,100.29845634325402
449.3328,100.17345758517301
451.2613,99.93962816149974
453.1897,99.68072779214359
455.1182,99.457293587699
457.0467,99.38394947425698
458.9751,99.54798162519603
460.9036,99.8881221425237
462.8321,100.31819203531776
464.7605,100.74952087850674
466.689,101.07356348969104
468.6175,101.29630290680728
470.5459,101.43802379848785
472.4744,101.54412673182593
474.4029,101.67797697249425
476.3313,101.81151447034934
478.2598,101.93579982062822
480.1883,102.02593729809375
482.1167,102.11450775395231
484.0452,102.11090347818248
485.9737,102.12061925698389
487.9021,102.12847204639951
489.8306,102.17777490355832
491.7591,102.18386102152442
493.6875,102.20787259719786
495.616,102.17204533438806
497.5445,102.10686902497861
499.4729,101.98589194862431
501.4014,101.86419367815878
503.3299,101.79071817771661
505.2583,101.7602833187053
507.1868,101.76066517222384
509.1153,101.7790247189774
511.0437,101.76665677906318
512.9722,101.73137258834012
514.9007,101.66027539552225
516.8292,101.5884044683846
518.7576,101.52686853717955
520.6861,101.49273717397669
522.6146,101.52177426142254
524.543,101.55398219063792
526.4715,101.59669801653034
528.4,101.68462782255527
530.3284,101.74592701635618
532.2569,101.83751945395797
534.1854,101.92629090562177
536.1138,101.99628982910758
538.0423,102.06439400684543
539.9708,102.07765174179647
541.8992,102.11002341641178
543.8277,102.1051518990906
545.7562,102.1212920285082
547.6846,102.17221150335236
549.6131,102.26788447467872
551.5416,102.4055616534223
553.47,102.55134850159217
555.3985,102.72200826486954
557.327,102.8336566243973
559.2554,102.87363756313722
561.1839,102.90488252193795
563.1124,102.85995889176031
565.0408,102.7687877957116
566.9693,102.65320075164188
568.8978,102.5362924737849
570.8262,102.44954451726932
572.7547,102.32896823053026
574.6832,102.24722445070383
576.6116,102.15308274978076
578.5401,102.10176639036483
580.4686,102.06756366397175
582.397,102.06906573168192
584.3255,102.07610500020722
586.254,102.10585870493907
588.1824,102.08926912092704
590.1109,102.08001989363446
592.0394,102.07883150697056
593.9678,102.03952240938857
595.8963,102.05029515001515
597.8248,102.09969396708158
599.7532,102.11926876594886
601.6817,102.20143621185649
603.6102,102.2308638101924
605.5386,102.2685254518856
607.4671,102.30922942026481
609.3956,102.27680514791435
611.324,102.20767558960428
613.2525,102.09806044658275
615.181,101.98338774314946
617.1094,101.95210064953099
619.0379,101.92631996629049
620.9664,101.97902456395796
622.8948,102.03547251967774
624.8233,102.05444989906908
626.7518,102.04014079370347
628.6802,101.96322206671567
630.6087,101.83176425531155
632.5372,101.66700599209416
634.4656,101.51898238174206
636.3941,101.35826385896686
638.3226,101.15105432140268
640.251,100.94850365459672
642.1795,100.72064846448279
644.108,100.5134926372848
646.0364,100.28672294757013
647.9649,100.10507461836241
649.8934,99.97430083925555
651.8218,99.95139249191291
653.7503,99.99625667339343
655.6788,100.13131830558274
657.6072,100.26264153921622
659.5357,100.34376433294946
661.4642,100.26276590816616
663.3926,99.98691701244422
665.3211,99.57046006712662
667.2496,99.1105693849127
669.178,98.82558742407295
671.1065,98.83459391701265
673.035,99.03626673495373
674.9634,99.31445031436891
676.8919,99.55463144774863
678.8204,99.66534479486991
680.7488,99.69267177774556
682.6773,99.73207016288096
684.6058,99.75044092589488
686.5342,99.84738415395185
688.4627,99.98031758394676
690.3912,100.15613342721649
692.3196,100.31155245177952
694.2481,100.5117356146134
696.1766,100.73801547475576
698.105,100.95736521713637
700.0335,101.19226635922107
701.962,101.36820068491637
703.8904,101.5465253134759
705.8189,101.71462179955256
707.7474,101.85201967549308
709.6758,101.97629532053818
711.6043,102.01049420806926
713.5328,101.98187551241386
715.4612,101.89774564481169
717.3897,101.83544362976401
719.3182,101.76799784652611
721.2466,101.77955228903222
723.1751,101.88688029792353
725.1036,101.99216942611925
727.032,102.10520858823782
728.9605,102.17318727652943
730.889,102.21356830611903
732.8174,102.20648974406701
734.7459,102.20165757158216
736.6744,102.22281594518283
738.6028,102.22096590335826
740.5313,102.2401045022225
742.4598,102.26344467496483
744.3882,102.29117479159025
746.3167,102.31246006088747
748.2452,102.32825048706582
750.1736,102.36056381597167
752.1021,102.36476596847776
754.0306,102.40925231451028
755.959,102.39797942344393
757.8875,102.41395616660571
759.816,102.4345216507926
761.7444,102.4346043700361
763.6729,102.46143014595407
765.6014,102.43207143090277
767.5298,102.4396705086935
769.4583,102.42460717181773
771.3868,102.3993190650226
773.3152,102.39923276660532
775.2437,102.37228453668779
777.1722,102.35471790551215
779.1006,102.31923504153964
781.0291,102.28163235949282
782.9576,102.20736527949437
784.886,102.10530818162059
786.8145,102.00360620822424
788.743,101.89899659595888
790.6714,101.76755263730723
792.5999,101.63440131526097
794.5284,101.4608304395569
796.4568,101.28075673875601
798.3853,100.99761969090795
800.3138,100.63179924599044
802.2422,100.17001849610358
804.1707,99.70940178908093
806.0992,99.32207218215191
808.0276,99.13496327962109
809.9561,99.17673580903264
811.8846,99.46185553744081
813.813,99.91739950306798
815.7415,100.41982979586139
817.67,100.85879151735556
819.5984,101.17559308950692
821.5269,101.2985774284834
823.4554,101.31544054999507
825.3839,101.27354018224301
827.3123,101.16036404025354
829.2408,100.93481481473773
831.1693,100.44959202985555
833.0977,99.68293261994201
835.0262,98.61056506537966
836.9547,97.435421810362
838.8831,96.45902683931035
840.8116,96.00992078270264
842.7401,96.22025939091017
844.6685,97.05576680116637
846.597,98.21857138523984
848.5255,99.39486050046263
850.4539,100.29543817568178
852.3824,100.89081198101711
854.3109,101.19094484544492
856.2393,101.29430014974986
858.1678,101.41126258730777
860.0963,101.5117690803503
862.0247,101.59962562974448
863.9532,101.68902728185671
865.8817,101.75867119422414
867.8101,101.80902209120597
869.7386,101.85890987030953
871.6671,101.89823996193671
873.5955,101.97752331564784
875.524,102.01879618592038
877.4525,102.02386635740795
879.3809,102.02233575672199
881.3094,102.02821064876453
883.2379,101.98624212030187
885.1663,101.93141953163321
887.0948,101.80580671582855
889.0233,101.59791538751071
890.9517,101.25794749143657
892.8802,100.80074402621537
894.8087,100.32116636044606
896.7371,99.93097061602664
898.6656,99.76420379379107
900.5941,99.81731140742215
902.5225,100.13493183645701
904.451,100.5910368596155
906.3795,101.0794743270373
908.3079,101.46763720194154
910.2364,101.77388778596794
912.1649,101.94823891023835
914.0934,102.03888422087044
916.0219,102.09389113828303
917.9503,102.14397400166268
919.8788,102.1879904634564
921.8073,102.18827407243575
923.7357,102.2585591230825
925.6642,102.25590093322688
927.5927,102.24547591417614
929.5211,102.22909046624812
931.4496,102.19193741777349
933.3781,102.10983896060966
935.3065,101.99569315532219
937.235,101.9446449286136
939.1635,101.85889459342768
941.0919,101.85120172711717
943.0204,101.86807950152216
944.9489,101.96536377054247
946.8773,102.04586343688892
948.8058,102.12608843834477
950.7343,102.14454746633854
952.6627,102.14511145289684
954.5912,102.06789818164536
956.5197,101.96101846229566
958.4481,101.76771912440358
960.3766,101.4511897288154
962.3051,100.88503916697685
964.2335,99.86389984177278
966.162,98.48874050299321
968.0905,96.91046891362603
970.0189,95.46647724967715
971.9474,94.60792953679754
973.8759,94.58820550970738
975.8043,95.46140055887848
977.7328,96.93533473148266
979.6613,98.67108130679618
981.5897,100.16381835954871
983.5182,101.17719821796003
985.4467,101.57166383082031
987.3751,101.28439280212612
989.3036,100.42465741528598
991.2321,99.18043282494203
993.1605,97.84993773152691
995.089,96.73380426561853
997.0175,96.18896298440332
998.9459,96.38907743805976
1000.8744,97.23603174191244
1002.8029,98.53659322247135
1004.7313,99.92255120190819
1006.6598,101.10794351589317
1008.5883,101.94557828548709
1010.5167,102.4521311280761
1012.4452,102.73138373597904
1014.3737,102.8769269472371
1016.3021,102.94880395611449
1018.2306,102.97687007011446
1020.1591,102.96974516357724
1022.0875,102.89509084917005
1024.016,102.79742644740809
1025.9445,102.68987707748875
1027.8729,102.56442332983836
1029.8014,102.45356723497298
1031.7299,102.28395299724143
1033.6583,102.15743260724969
1035.5868,102.01247188334206
1037.5153,101.85711055044796
1039.4437,101.75673252977404
1041.3722,101.65016119359807
1043.3007,101.60040827762005
1045.2291,101.6640631952436
1047.1576,101.73944109416563
1049.0861,101.91850934461806
1051.0145,102.09815989102263
1052.943,102.3245955079619
1054.8715,102.51568509399317
1056.7999,102.68046614196149
1058.7284,102.84312162388972
1060.6569,102.98785922596906
1062.5853,103.13759077367708
1064.5138,103.27619644504816
1066.4423,103.40935306455609
1068.3707,103.54856703855272
1070.2992,103.6827852149773
1072.2277,103.80749654456993
1074.1561,103.91635856076094
1076.0846,104.02362208526198
1078.0131,104.15964531848103
1079.9415,104.2431055081545
1081.87,104.34047706400065
1083.7985,104.430788106877
1085.7269,104.49256930449845
1087.6554,104.56022025995959
1089.5839,104.57820344185991
1091.5123,104.55820358298344
1093.4408,104.46698457149108
1095.3693,104.31303770889086
1097.2977,104.14431848374115
1099.2262,103.97039964983801
1101.1547,103.85584317888399
1103.0831,103.83560928168299
1105.0116,103.9040934650642
1106.9401,104.04405150485967
1108.8685,104.21332266463106
1110.797,104.3557198866853
1112.7255,104.47480441705318
1114.6539,104.5130687638907
1116.5824,104.53641631264074
1118.5109,104.49850541419839
1120.4393,104.4564949498165
1122.3678,104.40493836776281
1124.2963,104.34043314465063
1126.2247,104.24029376591366
1128.1532,104.16093096323836
1130.0817,104.05980178912081
1132.0101,103.89701894180568
1133.9386,103.74687280475396
1135.8671,103.50644435770597
1137.7955,103.25177493156365
1139.724,102.9343863055184
1141.6525,102.52243284897678
1143.5809,102.06714489262316
1145.5094,101.54628164992538
1147.4379,101.03448134932208
1149.3663,100.48764227755488
1151.2948,100.00267290277853
1153.2233,99.55307324899485
1155.1517,99.12136568251242
1157.0802,98.62473525811349
1159.0087,98.04398162637253
1160.9371,97.33778507788188
1162.8656,96.63907923924292
1164.7941,96.08651101866658
1166.7225,95.88486578715573
1168.651,96.15022551939461
1170.5795,96.88251346063078
1172.5079,97.9654410301404
1174.4364,99.19766663181645
1176.3649,100.31656292817472
1178.2933,101.18031461549323
1180.2218,101.80255481792744
1182.1503,102.16214519822488
1184.0787,102.34058925589181
1186.0072,102.42814946328991
1187.9357,102.46292351512383
1189.8641,102.47353465300436
1191.7926,102.5000029794934
1193.7211,102.48590885555228
1195.6495,102.48266533338456
1197.578,102.50032721186919
1199.5065,102.4898450110686
1201.4349,102.48170825001282
1203.3634,102.46542061805187
1205.2919,102.45119994860767
1207.2203,102.40619589307416
1209.1488,102.33029505111479
1211.0773,102.23982224591398
1213.0057,102.11705396928794
1214.9342,102.05023721914235
1216.8627,101.98569893045807
1218.7911,101.96893953229386
1220.7196,102.00843046087323
1222.6481,102.04560322832812
1224.5765,102.1683068794653
1226.505,102.28369904354942
1228.4335,102.37033154453947
1230.3619,102.42983093886873
1232.2904,102.49268963486898
1234.2189,102.49776871905847
1236.1473,102.47228895429555
1238.0758,102.45314817204516
1240.0043,102.4102158571205
1241.9327,102.331052926463
1243.8612,102.23100564803431
1245.7897,102.06078260175163
1247.7181,101.82904771017346
1249.6466,101.547405794836
1251.5751,101.28314069233029
1253.5035,101.07294292938046
1255.432,100.98875832761588
1257.3605,101.03384892531513
1259.2889,101.2185741560622
1261.2174,101.44935387986267
1263.1459,101.69117370844172
1265.0743,101.88489610700974
1267.0028,101.99445371536017
1268.9313,102.07920247837325
1270.8597,102.11163130329318
1272.7882,102.13479095764393
1274.7167,102.15138904125216
1276.6451,102.16921043561484
1278.5736,102.12031135812033
1280.5021,102.048985587145
1282.4305,101.98699300196897
1284.359,101.86949396459039
1286.2875,101.7248248095749
1288.2159,101.5642117014064
1290.1444,101.40560810478198
1292.0729,101.24481338429219
1294.0013,101.06697183299357
1295.9298,100.92412453679545
1297.8583,100.72939495618367
1299.7867,100.60906882637293
1301.7152,100.54811379959985
1303.6437,100.63151484415022
1305.5721,100.770835933722
1307.5006,101.01560545366625
1309.4291,101.2572432946544
1311.3575,101.44190272034153
1313.286,101.57238872677455
1315.2145,101.58794394391316
1317.1429,101.55019136876302
1319.0714,101.45117581181451
1320.9999,101.37428594064515
1322.9283,101.26096000946345
1324.8568,101.15171405948678
1326.7853,101.04429438828784
1328.7137,100.92091236754041
1330.6422,100.82475682379022
1332.5707,100.73262596011328
1334.4991,100.59044380907025
1336.4276,100.53313328082574
1338.3561,100.45353132064209
1340.2845,100.4085429603934
1342.213,100.37220507655758
1344.1415,100.24670064716692
1346.0699,99.97550056635411
1347.9984,99.46200284338221
1349.9269,98.64838021972326
1351.8553,97.59196224052563
1353.7838,96.3583607533372
1355.7123,95.20411447033196
1357.6407,94.3235576603406
1359.5692,93.81071958124714
1361.4977,93.5514214524406
1363.4261,93.08422732430012
1365.3546,91.78095757719468
1367.2831,89.16646346845666
1369.2115,85.16765784198655
1371.14,80.45452549347502
1373.0685,76.22428731523141
1374.9969,73.81817365473766
1376.9254,74.11622232275691
1378.8539,77.07190842069363
1380.7823,81.84661428071665
1382.7108,87.1661526027289
1384.6393,91.96624964066393
1386.5677,95.54237788345405
1388.4962,97.80241375310214
1390.4247,98.99799943679865
1392.3531,99.52535818953297
1394.2816,99.76128690274909
1396.2101,99.94147972155967
1398.1385,100.13584279670808
1400.067,100.38342668780656
1401.9955,100.60377394319053
1403.924,100.8168692078196
1405.8524,100.97918781784506
1407.7809,101.07211028641905
1409.7094,101.05242117960985
1411.6378,100.88311279742646
1413.5663,100.63636742463537
1415.4948,100.32612327706038
1417.4232,100.00530413094774
1419.3517,99.85564052300498
1421.2802,99.73780395941338
1423.2086,99.6713149905509
1425.1371,99.42404870564194
1427.0656,98.85814856106344
1428.994,97.93750310826796
1430.9225,96.74624568795723
1432.851,95.43098354554289
1434.7794,94.1908775521621
1436.7079,93.11037103159234
1438.6364,92.06880117220692
1440.5648,90.8048348004891
1442.4933,89.07021426346267
1444.4218,86.85447980170129
1446.3502,84.29758261170356
1448.2787,81.65015354576857
1450.2072,79.29326163906845
1452.1356,77.50038197303714
1454.0641,76.40440815333656
1455.9926,76.25381378601288
1457.921,76.93448096241994
1459.8495,78.39683928572452
1461.778,80.36706321355922
1463.7064,82.6270246811922
1465.6349,84.99372405253766
1467.5634,87.42691974218435
1469.4918,89.90877845790652
1471.4203,92.29735826182859
1473.3488,94.58250334181706
1475.2772,96.5079207457737
1477.2057,98.02188426611744
1479.1342,99.10781256681463
1481.0626,99.74235404573544
1482.9911,100.07395069697152
1484.9196,100.15418437144294
1486.848,100.15070955341206
1488.7765,100.15396557400729
1490.705,100.24454757693113
1492.6334,100.44416886554393
1494.5619,100.68108627898917
1496.4904,100.87127004208455
1498.4188,100.90953781912636
1500.3473,100.73370259588997
1502.2758,100.4233700572191
1504.2042,100.01567902407734
1506.1327,99.66419879820734
1508.0612,99.5053614119003
1509.9896,99.56574373492461
1511.9181,99.73041688075679
1513.8466,99.87368945988459
1515.775,99.9088307987956
1517.7035,99.80418195898518
1519.632,99.7409010827027
1521.5604,99.77560197544574
1523.4889,100.00384957521241
1525.4174,100.31345690373429
1527.3458,100.63729362341844
1529.2743,100.86583050430065
1531.2028,100.95245393250896
1533.1312,100.86407611001852
1535.0597,100.617538569452
1536.9882,100.35643311891387
1538.9166,100.10939042957672
1540.8451,100.06880458971669
1542.7736,100.30915963379329
1544.702,100.74551780110681
1546.6305,101.14079235533535
1548.559,101.354299671173
1550.4874,101.34883268529424
1552.4159,101.11869843497476
1554.3444,100.78121410907913
1556.2728,100.47449570654918
1558.2013,100.44917318821032
1560.1298,100.69455631509176
1562.0582,101.13338103147832
1563.9867,101.52194037083733
1565.9152,101.8040994235413
1567.8436,101.93789510594935
1569.7721,101.94939300188132
1571.7006,101.9661514787314
1573.629,102.0062085243712
1575.5575,102.12857643802191
1577.486,102.34796757245888
1579.4144,102.61105120084082
1581.3429,102.82895555985552
1583.2714,102.9656809136022
1585.1998,103.04104761812042
1587.1283,103.04423843563313
1589.0568,103.01329622982128
1590.9852,102.9838598400708
1592.9137,102.92893001601786
1594.8422,102.94076460732362
1596.7706,102.92617991044423
1598.6991,102.91575741065749
1600.6276,102.88797750269545
1602.556,102.8432485288334
1604.4845,102.77773803808218
1606.413,102.72683339199259
1608.3414,102.6667094303279
1610.2699,102.55743866979552
1612.1984,102.44398614957265
1614.1268,102.30112700962844
1616.0553,102.16782525453581
1617.9838,102.06066166426034
1619.9122,101.99629757559296
1621.8407,102.00946195958947
1623.7692,102.08103264540163
1625.6976,102.13181995230181
1627.6261,102.15952496627077
1629.5546,102.10420321797262
1631.483,101.98659948541679
1633.4115,101.83709617992724
1635.34,101.77167597239807
1637.2684,101.76734409886483
1639.1969,101.7860378735963
1641.1254,101.77982061488407
1643.0538,101.67095036362146
1644.9823,101.43428935492595
1646.9108,101.09127712992439
1648.8392,100.80199342442343
1650.7677,100.74752243180049
1652.6962,100.94586904488003
1654.6246,101.33379405724209
1656.5531,101.80917160626292
1658.4816,102.1562004061457
1660.41,102.33625608654471
1662.3385,102.35349712100232
1664.267,102.22632724391077
1666.1954,102.01581604130355
1668.1239,101.8282929599678
1670.0524,101.69654384204443
1671.9808,101.66067259089206
1673.9093,101.66136931650898
1675.8378,101.64352489092639
1677.7662,101.51797896145412
1679.6947,101.31951834637319
1681.6232,101.1405066207227
1683.5516,101.09876576894979
1685.4801,101.24179194728113
1687.4086,101.45295784284501
1689.337,101.6907687652085
1691.2655,101.75154288025983
1693.194,101.6121541415502
1695.1224,101.32054296916836
1697.0509,100.99487216505865
1698.9794,100.80819509555793
1700.9078,100.88693062933982
1702.8363,101.19261018427322
1704.7648,101.60917020991414
1706.6932,101.92522983496517
1708.6217,102.05496086584957
1710.5502,102.00308597332192
1712.4786,101.85424419184511
1714.4071,101.67855395695663
1716.3356,101.64767407411354
1718.264,101.82243536325029
1720.1925,102.14865445494726
1722.121,102.54716791021484
1724.0494,102.7128912159655
1725.9779,102.7176423192814
1727.9064,102.52080745351219
1729.8348,102.14030576756275
1731.7633,101.76649246473559
1733.6918,101.46497603430619
1735.6202,101.34022333045267
1737.5487,101.33567297208022
1739.4772,101.34390749734435
1741.4056,101.27053750552352
1743.3341,101.16305363678929
1745.2626,101.08597967289946
1747.191,101.09781935218477
1749.1195,101.20955059800927
1751.048,101.46589457005878
1752.9764,101.7791133074549
1754.9049,102.09294638374713
1756.8334,102.3193482152595
1758.7618,102.49832153410571
1760.6903,102.56836445725831
1762.6188,102.56564904823131
1764.5472,102.51865077838089
1766.4757,102.40011497012732
1768.4042,102.27295078647492
