Created as New Dataset,ABS yellow
cm-1,%T
4000.00,99.26
3999.00,99.26
3998.00,99.26
3997.00,99.26
3996.00,99.26
3995.00,99.26
3994.00,99.26
3993.00,99.26
3992.00,99.26
3991.00,99.26
3990.00,99.26
3989.00,99.26
3988.00,99.26
3987.00,99.26
3986.00,99.26
3985.00,99.26
3984.00,99.26
3983.00,99.26
3982.00,99.26
3981.00,99.26
3980.00,99.26
3979.00,99.26
3978.00,99.26
3977.00,99.26
3976.00,99.26
3975.00,99.26
3974.00,99.26
3973.00,99.27
3972.00,99.27
3971.00,99.27
3970.00,99.26
3969.00,99.26
3968.00,99.26
3967.00,99.26
3966.00,99.26
3965.00,99.26
3964.00,99.26
3963.00,99.25
3962.00,99.25
3961.00,99.25
3960.00,99.25
3959.00,99.25
3958.00,99.26
3957.00,99.26
3956.00,99.26
3955.00,99.26
3954.00,99.26
3953.00,99.26
3952.00,99.26
3951.00,99.26
3950.00,99.26
3949.00,99.26
3948.00,99.26
3947.00,99.25
3946.00,99.25
3945.00,99.25
3944.00,99.25
3943.00,99.25
3942.00,99.25
3941.00,99.25
3940.00,99.25
3939.00,99.25
3938.00,99.25
3937.00,99.24
3936.00,99.24
3935.00,99.24
3934.00,99.24
3933.00,99.25
3932.00,99.25
3931.00,99.25
3930.00,99.25
3929.00,99.25
3928.00,99.25
3927.00,99.25
3926.00,99.25
3925.00,99.25
3924.00,99.25
3923.00,99.25
3922.00,99.25
3921.00,99.25
3920.00,99.25
3919.00,99.25
3918.00,99.25
3917.00,99.25
3916.00,99.25
3915.00,99.25
3914.00,99.25
3913.00,99.25
3912.00,99.25
3911.00,99.25
3910.00,99.24
3909.00,99.24
3908.00,99.24
3907.00,99.23
3906.00,99.23
3905.00,99.23
3904.00,99.24
3903.00,99.24
3902.00,99.24
3901.00,99.24
3900.00,99.24
3899.00,99.24
3898.00,99.25
3897.00,99.25
3896.00,99.25
3895.00,99.24
3894.00,99.24
3893.00,99.24
3892.00,99.24
3891.00,99.24
3890.00,99.24
3889.00,99.25
3888.00,99.25
3887.00,99.25
3886.00,99.25
3885.00,99.25
3884.00,99.24
3883.00,99.24
3882.00,99.24
3881.00,99.25
3880.00,99.25
3879.00,99.24
3878.00,99.24
3877.00,99.24
3876.00,99.24
3875.00,99.24
3874.00,99.23
3873.00,99.23
3872.00,99.22
3871.00,99.23
3870.00,99.23
3869.00,99.24
3868.00,99.23
3867.00,99.23
3866.00,99.23
3865.00,99.23
3864.00,99.23
3863.00,99.23
3862.00,99.23
3861.00,99.23
3860.00,99.23
3859.00,99.23
3858.00,99.23
3857.00,99.24
3856.00,99.25
3855.00,99.26
3854.00,99.27
3853.00,99.26
3852.00,99.26
3851.00,99.26
3850.00,99.26
3849.00,99.26
3848.00,99.25
3847.00,99.25
3846.00,99.24
3845.00,99.23
3844.00,99.23
3843.00,99.22
3842.00,99.22
3841.00,99.22
3840.00,99.22
3839.00,99.22
3838.00,99.22
3837.00,99.22
3836.00,99.23
3835.00,99.23
3834.00,99.23
3833.00,99.23
3832.00,99.22
3831.00,99.22
3830.00,99.22
3829.00,99.22
3828.00,99.22
3827.00,99.22
3826.00,99.22
3825.00,99.22
3824.00,99.22
3823.00,99.22
3822.00,99.23
3821.00,99.22
3820.00,99.22
3819.00,99.21
3818.00,99.22
3817.00,99.22
3816.00,99.22
3815.00,99.22
3814.00,99.22
3813.00,99.22
3812.00,99.22
3811.00,99.22
3810.00,99.22
3809.00,99.22
3808.00,99.21
3807.00,99.21
3806.00,99.21
3805.00,99.21
3804.00,99.21
3803.00,99.21
3802.00,99.22
3801.00,99.22
3800.00,99.22
3799.00,99.22
3798.00,99.22
3797.00,99.22
3796.00,99.22
3795.00,99.22
3794.00,99.21
3793.00,99.21
3792.00,99.21
3791.00,99.21
3790.00,99.21
3789.00,99.21
3788.00,99.21
3787.00,99.21
3786.00,99.21
3785.00,99.21
3784.00,99.21
3783.00,99.21
3782.00,99.20
3781.00,99.21
3780.00,99.21
3779.00,99.20
3778.00,99.20
3777.00,99.20
3776.00,99.20
3775.00,99.20
3774.00,99.20
3773.00,99.20
3772.00,99.20
3771.00,99.20
3770.00,99.21
3769.00,99.20
3768.00,99.20
3767.00,99.20
3766.00,99.20
3765.00,99.20
3764.00,99.20
3763.00,99.20
3762.00,99.19
3761.00,99.19
3760.00,99.19
3759.00,99.19
3758.00,99.19
3757.00,99.19
3756.00,99.19
3755.00,99.19
3754.00,99.19
3753.00,99.19
3752.00,99.19
3751.00,99.19
3750.00,99.19
3749.00,99.19
3748.00,99.20
3747.00,99.20
3746.00,99.20
3745.00,99.21
3744.00,99.21
3743.00,99.20
3742.00,99.20
3741.00,99.20
3740.00,99.19
3739.00,99.19
3738.00,99.19
3737.00,99.19
3736.00,99.19
3735.00,99.18
3734.00,99.18
3733.00,99.18
3732.00,99.18
3731.00,99.19
3730.00,99.19
3729.00,99.19
3728.00,99.18
3727.00,99.18
3726.00,99.17
3725.00,99.17
3724.00,99.16
3723.00,99.16
3722.00,99.16
3721.00,99.16
3720.00,99.17
3719.00,99.17
3718.00,99.18
3717.00,99.18
3716.00,99.18
3715.00,99.18
3714.00,99.19
3713.00,99.19
3712.00,99.19
3711.00,99.19
3710.00,99.19
3709.00,99.19
3708.00,99.19
3707.00,99.19
3706.00,99.19
3705.00,99.18
3704.00,99.18
3703.00,99.18
3702.00,99.18
3701.00,99.18
3700.00,99.18
3699.00,99.18
3698.00,99.18
3697.00,99.18
3696.00,99.17
3695.00,99.17
3694.00,99.17
3693.00,99.16
3692.00,99.16
3691.00,99.16
3690.00,99.17
3689.00,99.17
3688.00,99.18
3687.00,99.18
3686.00,99.18
3685.00,99.18
3684.00,99.17
3683.00,99.16
3682.00,99.15
3681.00,99.14
3680.00,99.14
3679.00,99.13
3678.00,99.13
3677.00,99.13
3676.00,99.13
3675.00,99.14
3674.00,99.13
3673.00,99.13
3672.00,99.13
3671.00,99.13
3670.00,99.13
3669.00,99.13
3668.00,99.12
3667.00,99.12
3666.00,99.11
3665.00,99.11
3664.00,99.10
3663.00,99.10
3662.00,99.10
3661.00,99.10
3660.00,99.10
3659.00,99.10
3658.00,99.11
3657.00,99.11
3656.00,99.10
3655.00,99.10
3654.00,99.09
3653.00,99.09
3652.00,99.09
3651.00,99.08
3650.00,99.08
3649.00,99.08
3648.00,99.08
3647.00,99.09
3646.00,99.09
3645.00,99.09
3644.00,99.09
3643.00,99.09
3642.00,99.10
3641.00,99.10
3640.00,99.10
3639.00,99.09
3638.00,99.09
3637.00,99.09
3636.00,99.10
3635.00,99.10
3634.00,99.10
3633.00,99.10
3632.00,99.10
3631.00,99.11
3630.00,99.12
3629.00,99.12
3628.00,99.12
3627.00,99.12
3626.00,99.13
3625.00,99.12
3624.00,99.12
3623.00,99.11
3622.00,99.11
3621.00,99.11
3620.00,99.11
3619.00,99.11
3618.00,99.12
3617.00,99.12
3616.00,99.13
3615.00,99.14
3614.00,99.14
3613.00,99.13
3612.00,99.13
3611.00,99.12
3610.00,99.12
3609.00,99.12
3608.00,99.13
3607.00,99.13
3606.00,99.14
3605.00,99.14
3604.00,99.14
3603.00,99.15
3602.00,99.15
3601.00,99.15
3600.00,99.14
3599.00,99.14
3598.00,99.14
3597.00,99.14
3596.00,99.14
3595.00,99.14
3594.00,99.14
3593.00,99.14
3592.00,99.14
3591.00,99.14
3590.00,99.14
3589.00,99.14
3588.00,99.14
3587.00,99.14
3586.00,99.13
3585.00,99.13
3584.00,99.13
3583.00,99.13
3582.00,99.14
3581.00,99.14
3580.00,99.14
3579.00,99.14
3578.00,99.14
3577.00,99.14
3576.00,99.13
3575.00,99.13
3574.00,99.13
3573.00,99.13
3572.00,99.12
3571.00,99.12
3570.00,99.12
3569.00,99.12
3568.00,99.11
3567.00,99.10
3566.00,99.10
3565.00,99.10
3564.00,99.10
3563.00,99.11
3562.00,99.12
3561.00,99.12
3560.00,99.12
3559.00,99.12
3558.00,99.12
3557.00,99.12
3556.00,99.11
3555.00,99.11
3554.00,99.11
3553.00,99.11
3552.00,99.10
3551.00,99.09
3550.00,99.09
3549.00,99.09
3548.00,99.09
3547.00,99.09
3546.00,99.09
3545.00,99.08
3544.00,99.08
3543.00,99.08
3542.00,99.09
3541.00,99.09
3540.00,99.09
3539.00,99.09
3538.00,99.09
3537.00,99.09
3536.00,99.09
3535.00,99.09
3534.00,99.09
3533.00,99.09
3532.00,99.09
3531.00,99.08
3530.00,99.08
3529.00,99.08
3528.00,99.09
3527.00,99.09
3526.00,99.09
3525.00,99.09
3524.00,99.09
3523.00,99.09
3522.00,99.09
3521.00,99.10
3520.00,99.10
3519.00,99.11
3518.00,99.11
3517.00,99.11
3516.00,99.11
3515.00,99.11
3514.00,99.10
3513.00,99.10
3512.00,99.10
3511.00,99.10
3510.00,99.11
3509.00,99.11
3508.00,99.11
3507.00,99.11
3506.00,99.11
3505.00,99.11
3504.00,99.11
3503.00,99.11
3502.00,99.11
3501.00,99.11
3500.00,99.11
3499.00,99.11
3498.00,99.12
3497.00,99.12
3496.00,99.12
3495.00,99.12
3494.00,99.12
3493.00,99.11
3492.00,99.11
3491.00,99.11
3490.00,99.11
3489.00,99.11
3488.00,99.11
3487.00,99.12
3486.00,99.12
3485.00,99.12
3484.00,99.11
3483.00,99.11
3482.00,99.11
3481.00,99.11
3480.00,99.11
3479.00,99.12
3478.00,99.12
3477.00,99.11
3476.00,99.11
3475.00,99.11
3474.00,99.11
3473.00,99.11
3472.00,99.12
3471.00,99.12
3470.00,99.12
3469.00,99.13
3468.00,99.13
3467.00,99.13
3466.00,99.13
3465.00,99.12
3464.00,99.12
3463.00,99.12
3462.00,99.12
3461.00,99.12
3460.00,99.12
3459.00,99.12
3458.00,99.12
3457.00,99.12
3456.00,99.12
3455.00,99.12
3454.00,99.12
3453.00,99.12
3452.00,99.12
3451.00,99.12
3450.00,99.12
3449.00,99.12
3448.00,99.12
3447.00,99.12
3446.00,99.12
3445.00,99.12
3444.00,99.12
3443.00,99.12
3442.00,99.12
3441.00,99.12
3440.00,99.12
3439.00,99.12
3438.00,99.11
3437.00,99.11
3436.00,99.11
3435.00,99.11
3434.00,99.11
3433.00,99.11
3432.00,99.11
3431.00,99.11
3430.00,99.12
3429.00,99.12
3428.00,99.12
3427.00,99.12
3426.00,99.12
3425.00,99.11
3424.00,99.11
3423.00,99.11
3422.00,99.11
3421.00,99.11
3420.00,99.12
3419.00,99.12
3418.00,99.12
3417.00,99.12
3416.00,99.12
3415.00,99.12
3414.00,99.12
3413.00,99.12
3412.00,99.12
3411.00,99.12
3410.00,99.12
3409.00,99.13
3408.00,99.13
3407.00,99.13
3406.00,99.12
3405.00,99.12
3404.00,99.11
3403.00,99.11
3402.00,99.11
3401.00,99.11
3400.00,99.12
3399.00,99.12
3398.00,99.12
3397.00,99.12
3396.00,99.12
3395.00,99.12
3394.00,99.12
3393.00,99.12
3392.00,99.12
3391.00,99.12
3390.00,99.12
3389.00,99.12
3388.00,99.11
3387.00,99.11
3386.00,99.11
3385.00,99.11
3384.00,99.11
3383.00,99.12
3382.00,99.12
3381.00,99.12
3380.00,99.12
3379.00,99.12
3378.00,99.12
3377.00,99.12
3376.00,99.12
3375.00,99.12
3374.00,99.12
3373.00,99.11
3372.00,99.11
3371.00,99.11
3370.00,99.12
3369.00,99.12
3368.00,99.12
3367.00,99.12
3366.00,99.12
3365.00,99.12
3364.00,99.12
3363.00,99.12
3362.00,99.12
3361.00,99.12
3360.00,99.11
3359.00,99.11
3358.00,99.11
3357.00,99.11
3356.00,99.11
3355.00,99.11
3354.00,99.11
3353.00,99.11
3352.00,99.12
3351.00,99.12
3350.00,99.12
3349.00,99.12
3348.00,99.12
3347.00,99.12
3346.00,99.12
3345.00,99.12
3344.00,99.12
3343.00,99.12
3342.00,99.12
3341.00,99.12
3340.00,99.12
3339.00,99.11
3338.00,99.11
3337.00,99.11
3336.00,99.11
3335.00,99.11
3334.00,99.11
3333.00,99.11
3332.00,99.11
3331.00,99.11
3330.00,99.11
3329.00,99.11
3328.00,99.11
3327.00,99.11
3326.00,99.11
3325.00,99.11
3324.00,99.11
3323.00,99.10
3322.00,99.10
3321.00,99.10
3320.00,99.10
3319.00,99.10
3318.00,99.10
3317.00,99.09
3316.00,99.09
3315.00,99.09
3314.00,99.09
3313.00,99.08
3312.00,99.08
3311.00,99.07
3310.00,99.07
3309.00,99.06
3308.00,99.06
3307.00,99.06
3306.00,99.05
3305.00,99.05
3304.00,99.05
3303.00,99.05
3302.00,99.05
3301.00,99.05
3300.00,99.05
3299.00,99.05
3298.00,99.05
3297.00,99.04
3296.00,99.05
3295.00,99.05
3294.00,99.05
3293.00,99.05
3292.00,99.05
3291.00,99.06
3290.00,99.06
3289.00,99.06
3288.00,99.06
3287.00,99.07
3286.00,99.07
3285.00,99.07
3284.00,99.08
3283.00,99.08
3282.00,99.08
3281.00,99.09
3280.00,99.09
3279.00,99.09
3278.00,99.09
3277.00,99.09
3276.00,99.09
3275.00,99.09
3274.00,99.09
3273.00,99.09
3272.00,99.10
3271.00,99.10
3270.00,99.10
3269.00,99.09
3268.00,99.09
3267.00,99.09
3266.00,99.09
3265.00,99.09
3264.00,99.09
3263.00,99.09
3262.00,99.09
3261.00,99.09
3260.00,99.09
3259.00,99.09
3258.00,99.09
3257.00,99.09
3256.00,99.09
3255.00,99.09
3254.00,99.08
3253.00,99.08
3252.00,99.08
3251.00,99.09
3250.00,99.09
3249.00,99.09
3248.00,99.09
3247.00,99.09
3246.00,99.09
3245.00,99.09
3244.00,99.09
3243.00,99.09
3242.00,99.10
3241.00,99.10
3240.00,99.10
3239.00,99.09
3238.00,99.09
3237.00,99.09
3236.00,99.08
3235.00,99.08
3234.00,99.08
3233.00,99.08
3232.00,99.08
3231.00,99.08
3230.00,99.08
3229.00,99.08
3228.00,99.08
3227.00,99.08
3226.00,99.08
3225.00,99.08
3224.00,99.08
3223.00,99.08
3222.00,99.08
3221.00,99.08
3220.00,99.08
3219.00,99.08
3218.00,99.08
3217.00,99.08
3216.00,99.08
3215.00,99.09
3214.00,99.09
3213.00,99.09
3212.00,99.08
3211.00,99.08
3210.00,99.08
3209.00,99.08
3208.00,99.08
3207.00,99.07
3206.00,99.07
3205.00,99.07
3204.00,99.07
3203.00,99.07
3202.00,99.07
3201.00,99.07
3200.00,99.07
3199.00,99.08
3198.00,99.08
3197.00,99.07
3196.00,99.07
3195.00,99.07
3194.00,99.07
3193.00,99.07
3192.00,99.07
3191.00,99.07
3190.00,99.07
3189.00,99.07
3188.00,99.07
3187.00,99.07
3186.00,99.07
3185.00,99.08
3184.00,99.08
3183.00,99.08
3182.00,99.07
3181.00,99.07
3180.00,99.07
3179.00,99.07
3178.00,99.08
3177.00,99.07
3176.00,99.07
3175.00,99.07
3174.00,99.07
3173.00,99.07
3172.00,99.07
3171.00,99.06
3170.00,99.06
3169.00,99.06
3168.00,99.06
3167.00,99.06
3166.00,99.06
3165.00,99.06
3164.00,99.06
3163.00,99.06
3162.00,99.06
3161.00,99.06
3160.00,99.06
3159.00,99.06
3158.00,99.06
3157.00,99.06
3156.00,99.06
3155.00,99.06
3154.00,99.06
3153.00,99.06
3152.00,99.06
3151.00,99.06
3150.00,99.06
3149.00,99.06
3148.00,99.06
3147.00,99.06
3146.00,99.06
3145.00,99.07
3144.00,99.07
3143.00,99.07
3142.00,99.07
3141.00,99.07
3140.00,99.07
3139.00,99.06
3138.00,99.06
3137.00,99.06
3136.00,99.06
3135.00,99.06
3134.00,99.06
3133.00,99.06
3132.00,99.06
3131.00,99.06
3130.00,99.05
3129.00,99.05
3128.00,99.04
3127.00,99.04
3126.00,99.04
3125.00,99.04
3124.00,99.04
3123.00,99.04
3122.00,99.04
3121.00,99.03
3120.00,99.02
3119.00,99.02
3118.00,99.01
3117.00,99.00
3116.00,98.98
3115.00,98.97
3114.00,98.95
3113.00,98.93
3112.00,98.91
3111.00,98.88
3110.00,98.86
3109.00,98.84
3108.00,98.83
3107.00,98.82
3106.00,98.81
3105.00,98.81
3104.00,98.81
3103.00,98.81
3102.00,98.82
3101.00,98.82
3100.00,98.82
3099.00,98.82
3098.00,98.82
3097.00,98.81
3096.00,98.79
3095.00,98.77
3094.00,98.73
3093.00,98.69
3092.00,98.64
3091.00,98.58
3090.00,98.52
3089.00,98.45
3088.00,98.39
3087.00,98.34
3086.00,98.29
3085.00,98.27
3084.00,98.26
3083.00,98.26
3082.00,98.29
3081.00,98.31
3080.00,98.34
3079.00,98.37
3078.00,98.39
3077.00,98.40
3076.00,98.40
3075.00,98.40
3074.00,98.38
3073.00,98.36
3072.00,98.33
3071.00,98.29
3070.00,98.25
3069.00,98.20
3068.00,98.13
3067.00,98.07
3066.00,98.00
3065.00,97.95
3064.00,97.91
3063.00,97.88
3062.00,97.87
3061.00,97.88
3060.00,97.90
3059.00,97.94
3058.00,97.99
3057.00,98.04
3056.00,98.10
3055.00,98.16
3054.00,98.21
3053.00,98.26
3052.00,98.30
3051.00,98.33
3050.00,98.36
3049.00,98.37
3048.00,98.38
3047.00,98.38
3046.00,98.37
3045.00,98.35
3044.00,98.32
3043.00,98.27
3042.00,98.22
3041.00,98.16
3040.00,98.09
3039.00,98.01
3038.00,97.92
3037.00,97.81
3036.00,97.68
3035.00,97.54
3034.00,97.39
3033.00,97.24
3032.00,97.08
3031.00,96.94
3030.00,96.81
3029.00,96.73
3028.00,96.68
3027.00,96.68
3026.00,96.73
3025.00,96.82
3024.00,96.95
3023.00,97.09
3022.00,97.25
3021.00,97.40
3020.00,97.54
3019.00,97.66
3018.00,97.76
3017.00,97.83
3016.00,97.88
3015.00,97.91
3014.00,97.92
3013.00,97.92
3012.00,97.91
3011.00,97.89
3010.00,97.86
3009.00,97.83
3008.00,97.80
3007.00,97.77
3006.00,97.75
3005.00,97.74
3004.00,97.74
3003.00,97.77
3002.00,97.81
3001.00,97.86
3000.00,97.93
2999.00,97.99
2998.00,98.05
2997.00,98.11
2996.00,98.15
2995.00,98.19
2994.00,98.21
2993.00,98.23
2992.00,98.24
2991.00,98.25
2990.00,98.25
2989.00,98.25
2988.00,98.25
2987.00,98.25
2986.00,98.24
2985.00,98.24
2984.00,98.23
2983.00,98.22
2982.00,98.21
2981.00,98.20
2980.00,98.20
2979.00,98.19
2978.00,98.18
2977.00,98.17
2976.00,98.17
2975.00,98.16
2974.00,98.15
2973.00,98.13
2972.00,98.12
2971.00,98.10
2970.00,98.08
2969.00,98.05
2968.00,98.02
2967.00,97.98
2966.00,97.93
2965.00,97.88
2964.00,97.82
2963.00,97.76
2962.00,97.69
2961.00,97.62
2960.00,97.54
2959.00,97.46
2958.00,97.38
2957.00,97.30
2956.00,97.21
2955.00,97.12
2954.00,97.03
2953.00,96.93
2952.00,96.84
2951.00,96.75
2950.00,96.66
2949.00,96.56
2948.00,96.46
2947.00,96.36
2946.00,96.26
2945.00,96.16
2944.00,96.06
2943.00,95.96
2942.00,95.86
2941.00,95.76
2940.00,95.67
2939.00,95.57
2938.00,95.48
2937.00,95.39
2936.00,95.30
2935.00,95.22
2934.00,95.13
2933.00,95.06
2932.00,94.98
2931.00,94.90
2930.00,94.83
2929.00,94.76
2928.00,94.69
2927.00,94.63
2926.00,94.57
2925.00,94.52
2924.00,94.48
2923.00,94.44
2922.00,94.42
2921.00,94.41
2920.00,94.42
2919.00,94.45
2918.00,94.50
2917.00,94.56
2916.00,94.65
2915.00,94.74
2914.00,94.85
2913.00,94.96
2912.00,95.07
2911.00,95.19
2910.00,95.29
2909.00,95.40
2908.00,95.50
2907.00,95.60
2906.00,95.70
2905.00,95.79
2904.00,95.88
2903.00,95.97
2902.00,96.06
2901.00,96.14
2900.00,96.22
2899.00,96.30
2898.00,96.37
2897.00,96.44
2896.00,96.51
2895.00,96.58
2894.00,96.64
2893.00,96.70
2892.00,96.75
2891.00,96.81
2890.00,96.86
2889.00,96.92
2888.00,96.98
2887.00,97.03
2886.00,97.09
2885.00,97.14
2884.00,97.19
2883.00,97.24
2882.00,97.29
2881.00,97.34
2880.00,97.38
2879.00,97.41
2878.00,97.44
2877.00,97.47
2876.00,97.49
2875.00,97.51
2874.00,97.53
2873.00,97.53
2872.00,97.54
2871.00,97.53
2870.00,97.52
2869.00,97.51
2868.00,97.48
2867.00,97.45
2866.00,97.42
2865.00,97.38
2864.00,97.34
2863.00,97.30
2862.00,97.25
2861.00,97.20
2860.00,97.15
2859.00,97.10
2858.00,97.05
2857.00,97.00
2856.00,96.95
2855.00,96.91
2854.00,96.86
2853.00,96.82
2852.00,96.79
2851.00,96.77
2850.00,96.77
2849.00,96.78
2848.00,96.82
2847.00,96.88
2846.00,96.94
2845.00,97.01
2844.00,97.09
2843.00,97.17
2842.00,97.25
2841.00,97.33
2840.00,97.42
2839.00,97.51
2838.00,97.59
2837.00,97.68
2836.00,97.76
2835.00,97.84
2834.00,97.92
2833.00,97.99
2832.00,98.06
2831.00,98.13
2830.00,98.19
2829.00,98.25
2828.00,98.30
2827.00,98.35
2826.00,98.39
2825.00,98.43
2824.00,98.46
2823.00,98.49
2822.00,98.52
2821.00,98.54
2820.00,98.56
2819.00,98.58
2818.00,98.59
2817.00,98.61
2816.00,98.62
2815.00,98.63
2814.00,98.64
2813.00,98.65
2812.00,98.65
2811.00,98.66
2810.00,98.67
2809.00,98.68
2808.00,98.69
2807.00,98.70
2806.00,98.71
2805.00,98.71
2804.00,98.71
2803.00,98.72
2802.00,98.72
2801.00,98.72
2800.00,98.73
2799.00,98.74
2798.00,98.74
2797.00,98.75
2796.00,98.75
2795.00,98.76
2794.00,98.76
2793.00,98.76
2792.00,98.76
2791.00,98.77
2790.00,98.77
2789.00,98.77
2788.00,98.77
2787.00,98.77
2786.00,98.78
2785.00,98.78
2784.00,98.78
2783.00,98.79
2782.00,98.79
2781.00,98.79
2780.00,98.80
2779.00,98.80
2778.00,98.80
2777.00,98.80
2776.00,98.81
2775.00,98.81
2774.00,98.81
2773.00,98.81
2772.00,98.82
2771.00,98.82
2770.00,98.82
2769.00,98.83
2768.00,98.83
2767.00,98.83
2766.00,98.83
2765.00,98.83
2764.00,98.83
2763.00,98.83
2762.00,98.83
2761.00,98.83
2760.00,98.83
2759.00,98.83
2758.00,98.83
2757.00,98.84
2756.00,98.84
2755.00,98.84
2754.00,98.84
2753.00,98.84
2752.00,98.84
2751.00,98.84
2750.00,98.84
2749.00,98.84
2748.00,98.84
2747.00,98.85
2746.00,98.85
2745.00,98.85
2744.00,98.85
2743.00,98.85
2742.00,98.84
2741.00,98.84
2740.00,98.84
2739.00,98.84
2738.00,98.84
2737.00,98.84
2736.00,98.85
2735.00,98.85
2734.00,98.85
2733.00,98.85
2732.00,98.84
2731.00,98.84
2730.00,98.85
2729.00,98.85
2728.00,98.85
2727.00,98.85
2726.00,98.85
2725.00,98.85
2724.00,98.85
2723.00,98.85
2722.00,98.85
2721.00,98.85
2720.00,98.85
2719.00,98.85
2718.00,98.85
2717.00,98.84
2716.00,98.84
2715.00,98.85
2714.00,98.85
2713.00,98.85
2712.00,98.85
2711.00,98.85
2710.00,98.85
2709.00,98.85
2708.00,98.85
2707.00,98.85
2706.00,98.85
2705.00,98.85
2704.00,98.85
2703.00,98.85
2702.00,98.85
2701.00,98.85
2700.00,98.85
2699.00,98.85
2698.00,98.85
2697.00,98.85
2696.00,98.85
2695.00,98.85
2694.00,98.85
2693.00,98.84
2692.00,98.84
2691.00,98.84
2690.00,98.84
2689.00,98.84
2688.00,98.84
2687.00,98.84
2686.00,98.84
2685.00,98.84
2684.00,98.84
2683.00,98.84
2682.00,98.84
2681.00,98.84
2680.00,98.84
2679.00,98.84
2678.00,98.84
2677.00,98.84
2676.00,98.84
2675.00,98.84
2674.00,98.84
2673.00,98.84
2672.00,98.84
2671.00,98.83
2670.00,98.83
2669.00,98.83
2668.00,98.83
2667.00,98.83
2666.00,98.83
2665.00,98.83
2664.00,98.83
2663.00,98.82
2662.00,98.82
2661.00,98.81
2660.00,98.81
2659.00,98.81
2658.00,98.80
2657.00,98.80
2656.00,98.80
2655.00,98.80
2654.00,98.79
2653.00,98.79
2652.00,98.79
2651.00,98.79
2650.00,98.78
2649.00,98.78
2648.00,98.78
2647.00,98.78
2646.00,98.78
2645.00,98.78
2644.00,98.77
2643.00,98.77
2642.00,98.77
2641.00,98.76
2640.00,98.76
2639.00,98.76
2638.00,98.76
2637.00,98.76
2636.00,98.76
2635.00,98.76
2634.00,98.76
2633.00,98.76
2632.00,98.76
2631.00,98.76
2630.00,98.76
2629.00,98.76
2628.00,98.77
2627.00,98.77
2626.00,98.77
2625.00,98.78
2624.00,98.78
2623.00,98.78
2622.00,98.78
2621.00,98.78
2620.00,98.78
2619.00,98.78
2618.00,98.78
2617.00,98.78
2616.00,98.77
2615.00,98.77
2614.00,98.77
2613.00,98.77
2612.00,98.77
2611.00,98.76
2610.00,98.76
2609.00,98.76
2608.00,98.76
2607.00,98.77
2606.00,98.77
2605.00,98.77
2604.00,98.77
2603.00,98.78
2602.00,98.78
2601.00,98.78
2600.00,98.78
2599.00,98.78
2598.00,98.78
2597.00,98.78
2596.00,98.79
2595.00,98.79
2594.00,98.79
2593.00,98.79
2592.00,98.79
2591.00,98.78
2590.00,98.78
2589.00,98.78
2588.00,98.77
2587.00,98.77
2586.00,98.78
2585.00,98.78
2584.00,98.77
2583.00,98.77
2582.00,98.77
2581.00,98.78
2580.00,98.78
2579.00,98.78
2578.00,98.79
2577.00,98.79
2576.00,98.79
2575.00,98.80
2574.00,98.80
2573.00,98.80
2572.00,98.80
2571.00,98.79
2570.00,98.79
2569.00,98.79
2568.00,98.79
2567.00,98.80
2566.00,98.80
2565.00,98.80
2564.00,98.79
2563.00,98.79
2562.00,98.79
2561.00,98.79
2560.00,98.79
2559.00,98.79
2558.00,98.80
2557.00,98.80
2556.00,98.80
2555.00,98.79
2554.00,98.79
2553.00,98.78
2552.00,98.78
2551.00,98.78
2550.00,98.78
2549.00,98.78
2548.00,98.79
2547.00,98.79
2546.00,98.79
2545.00,98.79
2544.00,98.79
2543.00,98.79
2542.00,98.79
2541.00,98.79
2540.00,98.79
2539.00,98.79
2538.00,98.79
2537.00,98.79
2536.00,98.79
2535.00,98.79
2534.00,98.79
2533.00,98.79
2532.00,98.79
2531.00,98.79
2530.00,98.80
2529.00,98.80
2528.00,98.79
2527.00,98.79
2526.00,98.79
2525.00,98.79
2524.00,98.79
2523.00,98.79
2522.00,98.78
2521.00,98.78
2520.00,98.78
2519.00,98.78
2518.00,98.78
2517.00,98.78
2516.00,98.78
2515.00,98.78
2514.00,98.78
2513.00,98.78
2512.00,98.78
2511.00,98.78
2510.00,98.78
2509.00,98.78
2508.00,98.78
2507.00,98.78
2506.00,98.78
2505.00,98.79
2504.00,98.79
2503.00,98.79
2502.00,98.79
2501.00,98.79
2500.00,98.79
2499.00,98.79
2498.00,98.79
2497.00,98.79
2496.00,98.80
2495.00,98.80
2494.00,98.79
2493.00,98.79
2492.00,98.78
2491.00,98.79
2490.00,98.79
2489.00,98.80
2488.00,98.80
2487.00,98.80
2486.00,98.80
2485.00,98.80
2484.00,98.80
2483.00,98.80
2482.00,98.80
2481.00,98.80
2480.00,98.80
2479.00,98.80
2478.00,98.81
2477.00,98.81
2476.00,98.81
2475.00,98.81
2474.00,98.81
2473.00,98.81
2472.00,98.80
2471.00,98.80
2470.00,98.80
2469.00,98.80
2468.00,98.80
2467.00,98.80
2466.00,98.80
2465.00,98.80
2464.00,98.80
2463.00,98.80
2462.00,98.80
2461.00,98.80
2460.00,98.80
2459.00,98.80
2458.00,98.79
2457.00,98.79
2456.00,98.79
2455.00,98.79
2454.00,98.78
2453.00,98.78
2452.00,98.78
2451.00,98.78
2450.00,98.78
2449.00,98.78
2448.00,98.78
2447.00,98.78
2446.00,98.78
2445.00,98.79
2444.00,98.79
2443.00,98.79
2442.00,98.79
2441.00,98.79
2440.00,98.79
2439.00,98.79
2438.00,98.79
2437.00,98.79
2436.00,98.80
2435.00,98.80
2434.00,98.80
2433.00,98.80
2432.00,98.80
2431.00,98.80
2430.00,98.80
2429.00,98.81
2428.00,98.81
2427.00,98.81
2426.00,98.81
2425.00,98.81
2424.00,98.81
2423.00,98.81
2422.00,98.81
2421.00,98.81
2420.00,98.81
2419.00,98.81
2418.00,98.82
2417.00,98.82
2416.00,98.82
2415.00,98.82
2414.00,98.82
2413.00,98.82
2412.00,98.81
2411.00,98.81
2410.00,98.80
2409.00,98.80
2408.00,98.81
2407.00,98.81
2406.00,98.82
2405.00,98.82
2404.00,98.82
2403.00,98.82
2402.00,98.82
2401.00,98.82
2400.00,98.81
2399.00,98.81
2398.00,98.82
2397.00,98.82
2396.00,98.82
2395.00,98.83
2394.00,98.83
2393.00,98.83
2392.00,98.83
2391.00,98.84
2390.00,98.84
2389.00,98.84
2388.00,98.83
2387.00,98.83
2386.00,98.83
2385.00,98.83
2384.00,98.83
2383.00,98.83
2382.00,98.83
2381.00,98.83
2380.00,98.84
2379.00,98.84
2378.00,98.85
2377.00,98.85
2376.00,98.86
2375.00,98.87
2374.00,98.89
2373.00,98.91
2372.00,98.92
2371.00,98.92
2370.00,98.91
2369.00,98.89
2368.00,98.88
2367.00,98.87
2366.00,98.86
2365.00,98.84
2364.00,98.83
2363.00,98.83
2362.00,98.84
2361.00,98.84
2360.00,98.84
2359.00,98.84
2358.00,98.84
2357.00,98.83
2356.00,98.83
2355.00,98.83
2354.00,98.83
2353.00,98.84
2352.00,98.85
2351.00,98.85
2350.00,98.84
2349.00,98.82
2348.00,98.82
2347.00,98.81
2346.00,98.81
2345.00,98.81
2344.00,98.80
2343.00,98.79
2342.00,98.79
2341.00,98.78
2340.00,98.78
2339.00,98.78
2338.00,98.78
2337.00,98.78
2336.00,98.77
2335.00,98.77
2334.00,98.78
2333.00,98.79
2332.00,98.79
2331.00,98.79
2330.00,98.79
2329.00,98.79
2328.00,98.77
2327.00,98.75
2326.00,98.72
2325.00,98.68
2324.00,98.65
2323.00,98.64
2322.00,98.64
2321.00,98.65
2320.00,98.67
2319.00,98.68
2318.00,98.69
2317.00,98.70
2316.00,98.70
2315.00,98.70
2314.00,98.69
2313.00,98.68
2312.00,98.67
2311.00,98.67
2310.00,98.67
2309.00,98.68
2308.00,98.67
2307.00,98.67
2306.00,98.67
2305.00,98.67
2304.00,98.67
2303.00,98.67
2302.00,98.67
2301.00,98.66
2300.00,98.66
2299.00,98.66
2298.00,98.66
2297.00,98.66
2296.00,98.66
2295.00,98.66
2294.00,98.65
2293.00,98.64
2292.00,98.64
2291.00,98.63
2290.00,98.63
2289.00,98.62
2288.00,98.61
2287.00,98.61
2286.00,98.61
2285.00,98.61
2284.00,98.61
2283.00,98.61
2282.00,98.62
2281.00,98.62
2280.00,98.63
2279.00,98.63
2278.00,98.63
2277.00,98.63
2276.00,98.62
2275.00,98.62
2274.00,98.62
2273.00,98.63
2272.00,98.63
2271.00,98.62
2270.00,98.62
2269.00,98.62
2268.00,98.62
2267.00,98.62
2266.00,98.62
2265.00,98.62
2264.00,98.62
2263.00,98.63
2262.00,98.62
2261.00,98.62
2260.00,98.60
2259.00,98.59
2258.00,98.57
2257.00,98.56
2256.00,98.55
2255.00,98.55
2254.00,98.54
2253.00,98.52
2252.00,98.50
2251.00,98.46
2250.00,98.41
2249.00,98.36
2248.00,98.29
2247.00,98.21
2246.00,98.11
2245.00,97.99
2244.00,97.86
2243.00,97.72
2242.00,97.57
2241.00,97.43
2240.00,97.31
2239.00,97.22
2238.00,97.17
2237.00,97.18
2236.00,97.23
2235.00,97.32
2234.00,97.45
2233.00,97.61
2232.00,97.78
2231.00,97.94
2230.00,98.09
2229.00,98.21
2228.00,98.31
2227.00,98.37
2226.00,98.42
2225.00,98.45
2224.00,98.47
2223.00,98.49
2222.00,98.51
2221.00,98.53
2220.00,98.54
2219.00,98.56
2218.00,98.56
2217.00,98.57
2216.00,98.57
2215.00,98.57
2214.00,98.58
2213.00,98.58
2212.00,98.58
2211.00,98.58
2210.00,98.57
2209.00,98.56
2208.00,98.57
2207.00,98.58
2206.00,98.59
2205.00,98.59
2204.00,98.59
2203.00,98.58
2202.00,98.58
2201.00,98.58
2200.00,98.58
2199.00,98.58
2198.00,98.57
2197.00,98.56
2196.00,98.55
2195.00,98.55
2194.00,98.55
2193.00,98.55
2192.00,98.55
2191.00,98.54
2190.00,98.54
2189.00,98.53
2188.00,98.51
2187.00,98.50
2186.00,98.49
2185.00,98.49
2184.00,98.50
2183.00,98.52
2182.00,98.54
2181.00,98.56
2180.00,98.57
2179.00,98.58
2178.00,98.57
2177.00,98.56
2176.00,98.55
2175.00,98.55
2174.00,98.56
2173.00,98.56
2172.00,98.55
2171.00,98.53
2170.00,98.51
2169.00,98.49
2168.00,98.47
2167.00,98.45
2166.00,98.44
2165.00,98.44
2164.00,98.44
2163.00,98.44
2162.00,98.43
2161.00,98.44
2160.00,98.50
2159.00,98.60
2158.00,98.71
2157.00,98.78
2156.00,98.80
2155.00,98.80
2154.00,98.79
2153.00,98.78
2152.00,98.77
2151.00,98.76
2150.00,98.75
2149.00,98.75
2148.00,98.74
2147.00,98.73
2146.00,98.73
2145.00,98.72
2144.00,98.71
2143.00,98.71
2142.00,98.73
2141.00,98.74
2140.00,98.75
2139.00,98.76
2138.00,98.77
2137.00,98.78
2136.00,98.80
2135.00,98.83
2134.00,98.85
2133.00,98.85
2132.00,98.84
2131.00,98.82
2130.00,98.79
2129.00,98.77
2128.00,98.76
2127.00,98.75
2126.00,98.74
2125.00,98.74
2124.00,98.73
2123.00,98.73
2122.00,98.72
2121.00,98.71
2120.00,98.70
2119.00,98.70
2118.00,98.69
2117.00,98.68
2116.00,98.67
2115.00,98.65
2114.00,98.64
2113.00,98.63
2112.00,98.62
2111.00,98.62
2110.00,98.62
2109.00,98.61
2108.00,98.61
2107.00,98.62
2106.00,98.63
2105.00,98.63
2104.00,98.64
2103.00,98.63
2102.00,98.63
2101.00,98.64
2100.00,98.64
2099.00,98.64
2098.00,98.64
2097.00,98.64
2096.00,98.65
2095.00,98.67
2094.00,98.68
2093.00,98.68
2092.00,98.67
2091.00,98.66
2090.00,98.66
2089.00,98.65
2088.00,98.65
2087.00,98.64
2086.00,98.64
2085.00,98.63
2084.00,98.63
2083.00,98.62
2082.00,98.61
2081.00,98.61
2080.00,98.60
2079.00,98.59
2078.00,98.59
2077.00,98.58
2076.00,98.58
2075.00,98.59
2074.00,98.59
2073.00,98.59
2072.00,98.60
2071.00,98.60
2070.00,98.60
2069.00,98.60
2068.00,98.60
2067.00,98.60
2066.00,98.59
2065.00,98.59
2064.00,98.59
2063.00,98.59
2062.00,98.59
2061.00,98.58
2060.00,98.58
2059.00,98.57
2058.00,98.57
2057.00,98.56
2056.00,98.56
2055.00,98.56
2054.00,98.56
2053.00,98.55
2052.00,98.51
2051.00,98.48
2050.00,98.45
2049.00,98.45
2048.00,98.47
2047.00,98.49
2046.00,98.51
2045.00,98.51
2044.00,98.51
2043.00,98.50
2042.00,98.50
2041.00,98.49
2040.00,98.49
2039.00,98.48
2038.00,98.48
2037.00,98.48
2036.00,98.49
2035.00,98.51
2034.00,98.54
2033.00,98.56
2032.00,98.57
2031.00,98.57
2030.00,98.56
2029.00,98.55
2028.00,98.55
2027.00,98.55
2026.00,98.55
2025.00,98.54
2024.00,98.54
2023.00,98.53
2022.00,98.54
2021.00,98.55
2020.00,98.55
2019.00,98.55
2018.00,98.55
2017.00,98.55
2016.00,98.55
2015.00,98.55
2014.00,98.55
2013.00,98.55
2012.00,98.54
2011.00,98.54
2010.00,98.53
2009.00,98.53
2008.00,98.54
2007.00,98.56
2006.00,98.58
2005.00,98.59
2004.00,98.59
2003.00,98.58
2002.00,98.57
2001.00,98.57
2000.00,98.56
1999.00,98.56
1998.00,98.54
1997.00,98.52
1996.00,98.51
1995.00,98.50
1994.00,98.50
1993.00,98.50
1992.00,98.49
1991.00,98.47
1990.00,98.46
1989.00,98.45
1988.00,98.44
1987.00,98.44
1986.00,98.43
1985.00,98.42
1984.00,98.39
1983.00,98.35
1982.00,98.30
1981.00,98.25
1980.00,98.22
1979.00,98.23
1978.00,98.28
1977.00,98.34
1976.00,98.38
1975.00,98.41
1974.00,98.42
1973.00,98.42
1972.00,98.42
1971.00,98.42
1970.00,98.42
1969.00,98.41
1968.00,98.40
1967.00,98.39
1966.00,98.38
1965.00,98.37
1964.00,98.36
1963.00,98.35
1962.00,98.34
1961.00,98.35
1960.00,98.36
1959.00,98.37
1958.00,98.38
1957.00,98.37
1956.00,98.36
1955.00,98.34
1954.00,98.33
1953.00,98.32
1952.00,98.31
1951.00,98.31
1950.00,98.31
1949.00,98.32
1948.00,98.32
1947.00,98.33
1946.00,98.34
1945.00,98.35
1944.00,98.36
1943.00,98.38
1942.00,98.41
1941.00,98.42
1940.00,98.43
1939.00,98.44
1938.00,98.45
1937.00,98.47
1936.00,98.48
1935.00,98.49
1934.00,98.50
1933.00,98.51
1932.00,98.52
1931.00,98.53
1930.00,98.54
1929.00,98.55
1928.00,98.56
1927.00,98.56
1926.00,98.56
1925.00,98.56
1924.00,98.56
1923.00,98.57
1922.00,98.58
1921.00,98.58
1920.00,98.58
1919.00,98.57
1918.00,98.57
1917.00,98.58
1916.00,98.58
1915.00,98.58
1914.00,98.57
1913.00,98.57
1912.00,98.56
1911.00,98.55
1910.00,98.55
1909.00,98.55
1908.00,98.55
1907.00,98.54
1906.00,98.53
1905.00,98.53
1904.00,98.51
1903.00,98.50
1902.00,98.49
1901.00,98.48
1900.00,98.47
1899.00,98.46
1898.00,98.45
1897.00,98.44
1896.00,98.44
1895.00,98.43
1894.00,98.42
1893.00,98.41
1892.00,98.41
1891.00,98.40
1890.00,98.39
1889.00,98.38
1888.00,98.38
1887.00,98.38
1886.00,98.38
1885.00,98.37
1884.00,98.36
1883.00,98.36
1882.00,98.35
1881.00,98.35
1880.00,98.35
1879.00,98.34
1878.00,98.34
1877.00,98.34
1876.00,98.35
1875.00,98.36
1874.00,98.37
1873.00,98.37
1872.00,98.38
1871.00,98.39
1870.00,98.40
1869.00,98.41
1868.00,98.43
1867.00,98.44
1866.00,98.45
1865.00,98.46
1864.00,98.47
1863.00,98.48
1862.00,98.50
1861.00,98.51
1860.00,98.52
1859.00,98.53
1858.00,98.54
1857.00,98.55
1856.00,98.56
1855.00,98.57
1854.00,98.57
1853.00,98.58
1852.00,98.57
1851.00,98.57
1850.00,98.56
1849.00,98.56
1848.00,98.56
1847.00,98.56
1846.00,98.57
1845.00,98.56
1844.00,98.56
1843.00,98.56
1842.00,98.56
1841.00,98.56
1840.00,98.56
1839.00,98.55
1838.00,98.55
1837.00,98.54
1836.00,98.53
1835.00,98.52
1834.00,98.52
1833.00,98.51
1832.00,98.50
1831.00,98.49
1830.00,98.48
1829.00,98.47
1828.00,98.47
1827.00,98.46
1826.00,98.45
1825.00,98.44
1824.00,98.43
1823.00,98.42
1822.00,98.41
1821.00,98.40
1820.00,98.40
1819.00,98.40
1818.00,98.40
1817.00,98.40
1816.00,98.39
1815.00,98.39
1814.00,98.38
1813.00,98.37
1812.00,98.36
1811.00,98.35
1810.00,98.35
1809.00,98.35
1808.00,98.35
1807.00,98.36
1806.00,98.36
1805.00,98.36
1804.00,98.37
1803.00,98.37
1802.00,98.38
1801.00,98.38
1800.00,98.40
1799.00,98.41
1798.00,98.42
1797.00,98.43
1796.00,98.44
1795.00,98.45
1794.00,98.47
1793.00,98.49
1792.00,98.50
1791.00,98.51
1790.00,98.52
1789.00,98.52
1788.00,98.52
1787.00,98.53
1786.00,98.53
1785.00,98.53
1784.00,98.52
1783.00,98.52
1782.00,98.51
1781.00,98.51
1780.00,98.50
1779.00,98.50
1778.00,98.50
1777.00,98.50
1776.00,98.50
1775.00,98.50
1774.00,98.49
1773.00,98.49
1772.00,98.49
1771.00,98.49
1770.00,98.48
1769.00,98.47
1768.00,98.46
1767.00,98.46
1766.00,98.45
1765.00,98.45
1764.00,98.44
1763.00,98.43
1762.00,98.42
1761.00,98.41
1760.00,98.40
1759.00,98.40
1758.00,98.39
1757.00,98.38
1756.00,98.37
1755.00,98.36
1754.00,98.36
1753.00,98.36
1752.00,98.35
1751.00,98.35
1750.00,98.34
1749.00,98.34
1748.00,98.33
1747.00,98.33
1746.00,98.33
1745.00,98.32
1744.00,98.30
1743.00,98.28
1742.00,98.27
1741.00,98.26
1740.00,98.24
1739.00,98.22
1738.00,98.20
1737.00,98.19
1736.00,98.17
1735.00,98.15
1734.00,98.13
1733.00,98.12
1732.00,98.12
1731.00,98.12
1730.00,98.12
1729.00,98.13
1728.00,98.14
1727.00,98.15
1726.00,98.17
1725.00,98.19
1724.00,98.21
1723.00,98.22
1722.00,98.24
1721.00,98.25
1720.00,98.27
1719.00,98.29
1718.00,98.31
1717.00,98.34
1716.00,98.35
1715.00,98.36
1714.00,98.38
1713.00,98.39
1712.00,98.40
1711.00,98.41
1710.00,98.42
1709.00,98.42
1708.00,98.43
1707.00,98.43
1706.00,98.43
1705.00,98.43
1704.00,98.43
1703.00,98.43
1702.00,98.43
1701.00,98.43
1700.00,98.43
1699.00,98.44
1698.00,98.44
1697.00,98.44
1696.00,98.44
1695.00,98.43
1694.00,98.43
1693.00,98.42
1692.00,98.42
1691.00,98.41
1690.00,98.41
1689.00,98.40
1688.00,98.40
1687.00,98.40
1686.00,98.39
1685.00,98.39
1684.00,98.38
1683.00,98.38
1682.00,98.37
1681.00,98.36
1680.00,98.36
1679.00,98.35
1678.00,98.35
1677.00,98.35
1676.00,98.34
1675.00,98.33
1674.00,98.33
1673.00,98.32
1672.00,98.32
1671.00,98.31
1670.00,98.31
1669.00,98.30
1668.00,98.30
1667.00,98.30
1666.00,98.31
1665.00,98.31
1664.00,98.32
1663.00,98.32
1662.00,98.32
1661.00,98.32
1660.00,98.32
1659.00,98.32
1658.00,98.32
1657.00,98.31
1656.00,98.31
1655.00,98.30
1654.00,98.30
1653.00,98.30
1652.00,98.31
1651.00,98.30
1650.00,98.30
1649.00,98.30
1648.00,98.28
1647.00,98.26
1646.00,98.23
1645.00,98.19
1644.00,98.15
1643.00,98.11
1642.00,98.07
1641.00,98.02
1640.00,97.99
1639.00,97.97
1638.00,97.97
1637.00,97.99
1636.00,98.03
1635.00,98.08
1634.00,98.12
1633.00,98.15
1632.00,98.17
1631.00,98.19
1630.00,98.21
1629.00,98.22
1628.00,98.22
1627.00,98.22
1626.00,98.22
1625.00,98.22
1624.00,98.22
1623.00,98.21
1622.00,98.21
1621.00,98.21
1620.00,98.21
1619.00,98.21
1618.00,98.20
1617.00,98.18
1616.00,98.16
1615.00,98.14
1614.00,98.12
1613.00,98.08
1612.00,98.03
1611.00,97.95
1610.00,97.84
1609.00,97.69
1608.00,97.49
1607.00,97.24
1606.00,96.97
1605.00,96.70
1604.00,96.46
1603.00,96.31
1602.00,96.28
1601.00,96.38
1600.00,96.58
1599.00,96.83
1598.00,97.09
1597.00,97.31
1596.00,97.50
1595.00,97.64
1594.00,97.75
1593.00,97.83
1592.00,97.89
1591.00,97.93
1590.00,97.93
1589.00,97.91
1588.00,97.84
1587.00,97.74
1586.00,97.63
1585.00,97.54
1584.00,97.49
1583.00,97.51
1582.00,97.60
1581.00,97.72
1580.00,97.85
1579.00,97.95
1578.00,98.04
1577.00,98.11
1576.00,98.17
1575.00,98.20
1574.00,98.22
1573.00,98.23
1572.00,98.23
1571.00,98.24
1570.00,98.25
1569.00,98.25
1568.00,98.24
1567.00,98.24
1566.00,98.24
1565.00,98.24
1564.00,98.24
1563.00,98.24
1562.00,98.24
1561.00,98.23
1560.00,98.21
1559.00,98.19
1558.00,98.19
1557.00,98.19
1556.00,98.18
1555.00,98.18
1554.00,98.18
1553.00,98.18
1552.00,98.19
1551.00,98.19
1550.00,98.19
1549.00,98.20
1548.00,98.20
1547.00,98.21
1546.00,98.21
1545.00,98.22
1544.00,98.22
1543.00,98.23
1542.00,98.24
1541.00,98.25
1540.00,98.27
1539.00,98.29
1538.00,98.31
1537.00,98.31
1536.00,98.31
1535.00,98.31
1534.00,98.33
1533.00,98.34
1532.00,98.35
1531.00,98.36
1530.00,98.37
1529.00,98.38
1528.00,98.38
1527.00,98.38
1526.00,98.38
1525.00,98.38
1524.00,98.38
1523.00,98.37
1522.00,98.38
1521.00,98.38
1520.00,98.38
1519.00,98.38
1518.00,98.38
1517.00,98.37
1516.00,98.35
1515.00,98.34
1514.00,98.33
1513.00,98.32
1512.00,98.30
1511.00,98.28
1510.00,98.26
1509.00,98.24
1508.00,98.21
1507.00,98.17
1506.00,98.13
1505.00,98.08
1504.00,98.00
1503.00,97.91
1502.00,97.76
1501.00,97.53
1500.00,97.14
1499.00,96.55
1498.00,95.64
1497.00,94.43
1496.00,93.19
1495.00,92.32
1494.00,92.00
1493.00,92.21
1492.00,92.88
1491.00,93.87
1490.00,94.93
1489.00,95.77
1488.00,96.35
1487.00,96.75
1486.00,97.04
1485.00,97.26
1484.00,97.42
1483.00,97.55
1482.00,97.66
1481.00,97.73
1480.00,97.78
1479.00,97.82
1478.00,97.84
1477.00,97.85
1476.00,97.85
1475.00,97.85
1474.00,97.83
1473.00,97.81
1472.00,97.78
1471.00,97.76
1470.00,97.74
1469.00,97.71
1468.00,97.68
1467.00,97.63
1466.00,97.56
1465.00,97.45
1464.00,97.31
1463.00,97.17
1462.00,97.00
1461.00,96.78
1460.00,96.46
1459.00,95.91
1458.00,94.88
1457.00,93.35
1456.00,91.88
1455.00,90.87
1454.00,90.28
1453.00,90.03
1452.00,90.09
1451.00,90.40
1450.00,90.83
1449.00,91.30
1448.00,91.77
1447.00,92.22
1446.00,92.63
1445.00,93.00
1444.00,93.37
1443.00,93.71
1442.00,94.01
1441.00,94.28
1440.00,94.51
1439.00,94.73
1438.00,94.95
1437.00,95.19
1436.00,95.42
1435.00,95.62
1434.00,95.80
1433.00,95.99
1432.00,96.18
1431.00,96.38
1430.00,96.57
1429.00,96.76
1428.00,96.92
1427.00,97.04
1426.00,97.15
1425.00,97.24
1424.00,97.31
1423.00,97.36
1422.00,97.39
1421.00,97.41
1420.00,97.42
1419.00,97.44
1418.00,97.47
1417.00,97.51
1416.00,97.55
1415.00,97.60
1414.00,97.63
1413.00,97.66
1412.00,97.69
1411.00,97.70
1410.00,97.71
1409.00,97.72
1408.00,97.72
1407.00,97.72
1406.00,97.72
1405.00,97.72
1404.00,97.72
1403.00,97.72
1402.00,97.72
1401.00,97.73
1400.00,97.73
1399.00,97.74
1398.00,97.73
1397.00,97.73
1396.00,97.72
1395.00,97.70
1394.00,97.68
1393.00,97.66
1392.00,97.64
1391.00,97.63
1390.00,97.60
1389.00,97.57
1388.00,97.53
1387.00,97.49
1386.00,97.45
1385.00,97.42
1384.00,97.38
1383.00,97.33
1382.00,97.28
1381.00,97.22
1380.00,97.16
1379.00,97.10
1378.00,97.04
1377.00,96.99
1376.00,96.94
1375.00,96.89
1374.00,96.85
1373.00,96.82
1372.00,96.80
1371.00,96.78
1370.00,96.76
1369.00,96.75
1368.00,96.73
1367.00,96.72
1366.00,96.70
1365.00,96.69
1364.00,96.68
1363.00,96.67
1362.00,96.67
1361.00,96.66
1360.00,96.66
1359.00,96.66
1358.00,96.65
1357.00,96.65
1356.00,96.65
1355.00,96.65
1354.00,96.65
1353.00,96.64
1352.00,96.65
1351.00,96.65
1350.00,96.66
1349.00,96.67
1348.00,96.67
1347.00,96.68
1346.00,96.70
1345.00,96.71
1344.00,96.73
1343.00,96.75
1342.00,96.77
1341.00,96.78
1340.00,96.79
1339.00,96.80
1338.00,96.80
1337.00,96.81
1336.00,96.81
1335.00,96.81
1334.00,96.81
1333.00,96.80
1332.00,96.80
1331.00,96.80
1330.00,96.80
1329.00,96.81
1328.00,96.82
1327.00,96.82
1326.00,96.83
1325.00,96.83
1324.00,96.84
1323.00,96.83
1322.00,96.83
1321.00,96.82
1320.00,96.81
1319.00,96.80
1318.00,96.80
1317.00,96.79
1316.00,96.79
1315.00,96.79
1314.00,96.79
1313.00,96.80
1312.00,96.82
1311.00,96.83
1310.00,96.84
1309.00,96.85
1308.00,96.87
1307.00,96.89
1306.00,96.90
1305.00,96.92
1304.00,96.95
1303.00,96.97
1302.00,97.00
1301.00,97.02
1300.00,97.05
1299.00,97.07
1298.00,97.09
1297.00,97.10
1296.00,97.12
1295.00,97.14
1294.00,97.16
1293.00,97.17
1292.00,97.19
1291.00,97.21
1290.00,97.22
1289.00,97.24
1288.00,97.26
1287.00,97.28
1286.00,97.30
1285.00,97.32
1284.00,97.33
1283.00,97.34
1282.00,97.36
1281.00,97.37
1280.00,97.38
1279.00,97.40
1278.00,97.41
1277.00,97.42
1276.00,97.44
1275.00,97.45
1274.00,97.46
1273.00,97.48
1272.00,97.49
1271.00,97.50
1270.00,97.51
1269.00,97.52
1268.00,97.53
1267.00,97.54
1266.00,97.55
1265.00,97.56
1264.00,97.57
1263.00,97.58
1262.00,97.59
1261.00,97.60
1260.00,97.61
1259.00,97.62
1258.00,97.63
1257.00,97.65
1256.00,97.67
1255.00,97.69
1254.00,97.71
1253.00,97.73
1252.00,97.73
1251.00,97.74
1250.00,97.74
1249.00,97.75
1248.00,97.77
1247.00,97.78
1246.00,97.79
1245.00,97.80
1244.00,97.80
1243.00,97.80
1242.00,97.80
1241.00,97.80
1240.00,97.79
1239.00,97.79
1238.00,97.79
1237.00,97.80
1236.00,97.80
1235.00,97.81
1234.00,97.81
1233.00,97.81
1232.00,97.82
1231.00,97.82
1230.00,97.82
1229.00,97.82
1228.00,97.82
1227.00,97.82
1226.00,97.81
1225.00,97.80
1224.00,97.79
1223.00,97.79
1222.00,97.78
1221.00,97.76
1220.00,97.75
1219.00,97.72
1218.00,97.70
1217.00,97.67
1216.00,97.65
1215.00,97.62
1214.00,97.60
1213.00,97.57
1212.00,97.55
1211.00,97.54
1210.00,97.52
1209.00,97.50
1208.00,97.48
1207.00,97.46
1206.00,97.44
1205.00,97.42
1204.00,97.41
1203.00,97.40
1202.00,97.40
1201.00,97.39
1200.00,97.38
1199.00,97.37
1198.00,97.37
1197.00,97.37
1196.00,97.38
1195.00,97.39
1194.00,97.40
1193.00,97.41
1192.00,97.41
1191.00,97.40
1190.00,97.38
1189.00,97.34
1188.00,97.29
1187.00,97.23
1186.00,97.17
1185.00,97.12
1184.00,97.08
1183.00,97.06
1182.00,97.07
1181.00,97.10
1180.00,97.16
1179.00,97.23
1178.00,97.30
1177.00,97.37
1176.00,97.43
1175.00,97.47
1174.00,97.50
1173.00,97.51
1172.00,97.52
1171.00,97.52
1170.00,97.52
1169.00,97.53
1168.00,97.52
1167.00,97.52
1166.00,97.51
1165.00,97.48
1164.00,97.44
1163.00,97.38
1162.00,97.31
1161.00,97.23
1160.00,97.14
1159.00,97.06
1158.00,96.97
1157.00,96.91
1156.00,96.87
1155.00,96.88
1154.00,96.94
1153.00,97.03
1152.00,97.15
1151.00,97.27
1150.00,97.37
1149.00,97.45
1148.00,97.52
1147.00,97.58
1146.00,97.63
1145.00,97.67
1144.00,97.70
1143.00,97.72
1142.00,97.73
1141.00,97.74
1140.00,97.75
1139.00,97.76
1138.00,97.76
1137.00,97.77
1136.00,97.77
1135.00,97.78
1134.00,97.78
1133.00,97.78
1132.00,97.79
1131.00,97.78
1130.00,97.78
1129.00,97.78
1128.00,97.77
1127.00,97.77
1126.00,97.75
1125.00,97.72
1124.00,97.70
1123.00,97.67
1122.00,97.65
1121.00,97.63
1120.00,97.61
1119.00,97.59
1118.00,97.56
1117.00,97.53
1116.00,97.51
1115.00,97.50
1114.00,97.49
1113.00,97.48
1112.00,97.48
1111.00,97.48
1110.00,97.48
1109.00,97.48
1108.00,97.47
1107.00,97.46
1106.00,97.45
1105.00,97.44
1104.00,97.43
1103.00,97.41
1102.00,97.40
1101.00,97.39
1100.00,97.37
1099.00,97.35
1098.00,97.33
1097.00,97.32
1096.00,97.31
1095.00,97.30
1094.00,97.29
1093.00,97.27
1092.00,97.24
1091.00,97.21
1090.00,97.18
1089.00,97.15
1088.00,97.11
1087.00,97.07
1086.00,97.02
1085.00,96.96
1084.00,96.90
1083.00,96.83
1082.00,96.76
1081.00,96.69
1080.00,96.62
1079.00,96.55
1078.00,96.47
1077.00,96.39
1076.00,96.30
1075.00,96.22
1074.00,96.15
1073.00,96.08
1072.00,96.03
1071.00,96.00
1070.00,95.99
1069.00,96.00
1068.00,96.04
1067.00,96.10
1066.00,96.17
1065.00,96.23
1064.00,96.30
1063.00,96.36
1062.00,96.43
1061.00,96.49
1060.00,96.54
1059.00,96.58
1058.00,96.61
1057.00,96.64
1056.00,96.68
1055.00,96.72
1054.00,96.75
1053.00,96.78
1052.00,96.79
1051.00,96.80
1050.00,96.82
1049.00,96.83
1048.00,96.85
1047.00,96.87
1046.00,96.88
1045.00,96.90
1044.00,96.90
1043.00,96.90
1042.00,96.89
1041.00,96.88
1040.00,96.85
1039.00,96.80
1038.00,96.72
1037.00,96.59
1036.00,96.42
1035.00,96.20
1034.00,95.93
1033.00,95.64
1032.00,95.36
1031.00,95.12
1030.00,94.96
1029.00,94.89
1028.00,94.92
1027.00,95.03
1026.00,95.20
1025.00,95.37
1024.00,95.54
1023.00,95.68
1022.00,95.80
1021.00,95.90
1020.00,95.98
1019.00,96.04
1018.00,96.09
1017.00,96.13
1016.00,96.17
1015.00,96.20
1014.00,96.23
1013.00,96.25
1012.00,96.26
1011.00,96.26
1010.00,96.25
1009.00,96.23
1008.00,96.21
1007.00,96.17
1006.00,96.13
1005.00,96.09
1004.00,96.06
1003.00,96.06
1002.00,96.08
1001.00,96.12
1000.00,96.14
999.00,96.14
998.00,96.12
997.00,96.08
996.00,96.04
995.00,95.99
994.00,95.96
993.00,95.94
992.00,95.93
991.00,95.94
990.00,95.96
989.00,95.98
988.00,95.99
987.00,95.99
986.00,95.98
985.00,95.95
984.00,95.91
983.00,95.86
982.00,95.80
981.00,95.72
980.00,95.61
979.00,95.48
978.00,95.31
977.00,95.11
976.00,94.86
975.00,94.58
974.00,94.26
973.00,93.90
972.00,93.52
971.00,93.12
970.00,92.75
969.00,92.40
968.00,92.12
967.00,91.93
966.00,91.86
965.00,91.90
964.00,92.08
963.00,92.37
962.00,92.76
961.00,93.21
960.00,93.68
959.00,94.13
958.00,94.54
957.00,94.89
956.00,95.19
955.00,95.44
954.00,95.65
953.00,95.83
952.00,95.98
951.00,96.11
950.00,96.22
949.00,96.30
948.00,96.37
947.00,96.43
946.00,96.49
945.00,96.55
944.00,96.60
943.00,96.63
942.00,96.66
941.00,96.69
940.00,96.72
939.00,96.75
938.00,96.78
937.00,96.81
936.00,96.84
935.00,96.86
934.00,96.87
933.00,96.88
932.00,96.89
931.00,96.88
930.00,96.88
929.00,96.87
928.00,96.85
927.00,96.82
926.00,96.78
925.00,96.72
924.00,96.64
923.00,96.55
922.00,96.43
921.00,96.28
920.00,96.10
919.00,95.90
918.00,95.66
917.00,95.41
916.00,95.15
915.00,94.88
914.00,94.64
913.00,94.44
912.00,94.29
911.00,94.21
910.00,94.21
909.00,94.29
908.00,94.46
907.00,94.68
906.00,94.94
905.00,95.22
904.00,95.49
903.00,95.75
902.00,95.98
901.00,96.17
900.00,96.33
899.00,96.46
898.00,96.57
897.00,96.65
896.00,96.71
895.00,96.76
894.00,96.80
893.00,96.84
892.00,96.87
891.00,96.90
890.00,96.93
889.00,96.96
888.00,96.99
887.00,97.01
886.00,97.03
885.00,97.04
884.00,97.06
883.00,97.07
882.00,97.08
881.00,97.08
880.00,97.08
879.00,97.09
878.00,97.09
877.00,97.10
876.00,97.10
875.00,97.11
874.00,97.11
873.00,97.11
872.00,97.12
871.00,97.13
870.00,97.14
869.00,97.15
868.00,97.15
867.00,97.15
866.00,97.14
865.00,97.14
864.00,97.14
863.00,97.13
862.00,97.12
861.00,97.11
860.00,97.09
859.00,97.07
858.00,97.04
857.00,97.01
856.00,96.98
855.00,96.93
854.00,96.88
853.00,96.83
852.00,96.79
851.00,96.75
850.00,96.71
849.00,96.67
848.00,96.63
847.00,96.59
846.00,96.56
845.00,96.54
844.00,96.55
843.00,96.57
842.00,96.61
841.00,96.66
840.00,96.71
839.00,96.76
838.00,96.82
837.00,96.86
836.00,96.91
835.00,96.96
834.00,97.01
833.00,97.06
832.00,97.10
831.00,97.13
830.00,97.15
829.00,97.16
828.00,97.16
827.00,97.16
826.00,97.16
825.00,97.16
824.00,97.17
823.00,97.17
822.00,97.18
821.00,97.18
820.00,97.18
819.00,97.17
818.00,97.15
817.00,97.13
816.00,97.12
815.00,97.11
814.00,97.11
813.00,97.10
812.00,97.10
811.00,97.09
810.00,97.09
809.00,97.08
808.00,97.07
807.00,97.07
806.00,97.07
805.00,97.07
804.00,97.07
803.00,97.06
802.00,97.05
801.00,97.02
800.00,96.99
799.00,96.96
798.00,96.94
797.00,96.91
796.00,96.87
795.00,96.83
794.00,96.79
793.00,96.74
792.00,96.68
791.00,96.63
790.00,96.57
789.00,96.50
788.00,96.42
787.00,96.33
786.00,96.22
785.00,96.09
784.00,95.94
783.00,95.77
782.00,95.58
781.00,95.35
780.00,95.10
779.00,94.82
778.00,94.52
777.00,94.19
776.00,93.82
775.00,93.44
774.00,93.03
773.00,92.61
772.00,92.15
771.00,91.66
770.00,91.13
769.00,90.56
768.00,89.95
767.00,89.31
766.00,88.66
765.00,88.00
764.00,87.36
763.00,86.77
762.00,86.27
761.00,85.86
760.00,85.57
759.00,85.42
758.00,85.42
757.00,85.55
756.00,85.81
755.00,86.18
754.00,86.63
753.00,87.12
752.00,87.63
751.00,88.14
750.00,88.64
749.00,89.11
748.00,89.57
747.00,90.00
746.00,90.40
745.00,90.78
744.00,91.13
743.00,91.44
742.00,91.72
741.00,91.96
740.00,92.21
739.00,92.46
738.00,92.75
737.00,93.05
736.00,93.37
735.00,93.69
734.00,94.00
733.00,94.27
732.00,94.50
731.00,94.70
730.00,94.87
729.00,95.02
728.00,95.15
727.00,95.25
726.00,95.34
725.00,95.42
724.00,95.48
723.00,95.53
722.00,95.57
721.00,95.59
720.00,95.59
719.00,95.57
718.00,95.51
717.00,95.37
716.00,95.14
715.00,94.78
714.00,94.23
713.00,93.47
712.00,92.47
711.00,91.24
710.00,89.79
709.00,88.17
708.00,86.40
707.00,84.54
706.00,82.62
705.00,80.66
704.00,78.70
703.00,76.77
702.00,74.90
701.00,73.15
700.00,71.63
699.00,70.54
698.00,70.10
697.00,70.50
696.00,71.79
695.00,73.86
694.00,76.40
693.00,79.03
692.00,81.43
691.00,83.44
690.00,85.04
689.00,86.29
688.00,87.26
687.00,88.02
686.00,88.65
685.00,89.16
684.00,89.59
683.00,89.95
682.00,90.26
681.00,90.53
680.00,90.76
679.00,90.96
678.00,91.15
677.00,91.35
676.00,91.53
675.00,91.68
674.00,91.79
673.00,91.88
672.00,91.96
671.00,92.05
670.00,92.19
669.00,92.37
668.00,92.55
667.00,92.67
666.00,92.72
665.00,92.77
664.00,92.84
663.00,92.96
662.00,93.08
661.00,93.17
660.00,93.25
659.00,93.34
658.00,93.46
657.00,93.57
656.00,93.65
655.00,93.68
654.00,93.70
653.00,93.73
652.00,93.78
651.00,93.83
650.00,93.87
