Created as New Dataset,Sample 002 By Administrator Date Wednesday, May 03 2023
cm-1,A
4000.00,0.0067
3999.00,0.0067
3998.00,0.0067
3997.00,0.0067
3996.00,0.0068
3995.00,0.0068
3994.00,0.0067
3993.00,0.0067
3992.00,0.0066
3991.00,0.0066
3990.00,0.0066
3989.00,0.0066
3988.00,0.0067
3987.00,0.0067
3986.00,0.0066
3985.00,0.0066
3984.00,0.0067
3983.00,0.0067
3982.00,0.0068
3981.00,0.0068
3980.00,0.0068
3979.00,0.0067
3978.00,0.0067
3977.00,0.0066
3976.00,0.0067
3975.00,0.0067
3974.00,0.0067
3973.00,0.0068
3972.00,0.0068
3971.00,0.0068
3970.00,0.0067
3969.00,0.0067
3968.00,0.0067
3967.00,0.0067
3966.00,0.0067
3965.00,0.0067
3964.00,0.0067
3963.00,0.0067
3962.00,0.0067
3961.00,0.0067
3960.00,0.0067
3959.00,0.0067
3958.00,0.0067
3957.00,0.0068
3956.00,0.0068
3955.00,0.0068
3954.00,0.0068
3953.00,0.0068
3952.00,0.0068
3951.00,0.0067
3950.00,0.0067
3949.00,0.0067
3948.00,0.0068
3947.00,0.0068
3946.00,0.0068
3945.00,0.0067
3944.00,0.0067
3943.00,0.0067
3942.00,0.0067
3941.00,0.0067
3940.00,0.0067
3939.00,0.0067
3938.00,0.0067
3937.00,0.0067
3936.00,0.0067
3935.00,0.0067
3934.00,0.0067
3933.00,0.0067
3932.00,0.0067
3931.00,0.0067
3930.00,0.0067
3929.00,0.0066
3928.00,0.0067
3927.00,0.0067
3926.00,0.0067
3925.00,0.0068
3924.00,0.0068
3923.00,0.0068
3922.00,0.0068
3921.00,0.0068
3920.00,0.0068
3919.00,0.0068
3918.00,0.0067
3917.00,0.0067
3916.00,0.0067
3915.00,0.0067
3914.00,0.0067
3913.00,0.0067
3912.00,0.0067
3911.00,0.0067
3910.00,0.0067
3909.00,0.0068
3908.00,0.0068
3907.00,0.0068
3906.00,0.0067
3905.00,0.0067
3904.00,0.0067
3903.00,0.0067
3902.00,0.0067
3901.00,0.0068
3900.00,0.0068
3899.00,0.0068
3898.00,0.0068
3897.00,0.0068
3896.00,0.0068
3895.00,0.0068
3894.00,0.0068
3893.00,0.0068
3892.00,0.0068
3891.00,0.0068
3890.00,0.0068
3889.00,0.0068
3888.00,0.0068
3887.00,0.0068
3886.00,0.0068
3885.00,0.0068
3884.00,0.0068
3883.00,0.0068
3882.00,0.0069
3881.00,0.0068
3880.00,0.0068
3879.00,0.0067
3878.00,0.0067
3877.00,0.0067
3876.00,0.0067
3875.00,0.0067
3874.00,0.0067
3873.00,0.0067
3872.00,0.0067
3871.00,0.0068
3870.00,0.0068
3869.00,0.0068
3868.00,0.0068
3867.00,0.0068
3866.00,0.0068
3865.00,0.0068
3864.00,0.0068
3863.00,0.0068
3862.00,0.0067
3861.00,0.0067
3860.00,0.0067
3859.00,0.0067
3858.00,0.0067
3857.00,0.0067
3856.00,0.0067
3855.00,0.0067
3854.00,0.0067
3853.00,0.0067
3852.00,0.0067
3851.00,0.0067
3850.00,0.0066
3849.00,0.0066
3848.00,0.0066
3847.00,0.0067
3846.00,0.0068
3845.00,0.0068
3844.00,0.0069
3843.00,0.0069
3842.00,0.0069
3841.00,0.0069
3840.00,0.0069
3839.00,0.0068
3838.00,0.0068
3837.00,0.0067
3836.00,0.0067
3835.00,0.0067
3834.00,0.0067
3833.00,0.0067
3832.00,0.0067
3831.00,0.0068
3830.00,0.0068
3829.00,0.0068
3828.00,0.0068
3827.00,0.0068
3826.00,0.0067
3825.00,0.0067
3824.00,0.0067
3823.00,0.0067
3822.00,0.0067
3821.00,0.0067
3820.00,0.0067
3819.00,0.0067
3818.00,0.0067
3817.00,0.0067
3816.00,0.0067
3815.00,0.0067
3814.00,0.0067
3813.00,0.0067
3812.00,0.0067
3811.00,0.0067
3810.00,0.0067
3809.00,0.0068
3808.00,0.0068
3807.00,0.0068
3806.00,0.0067
3805.00,0.0067
3804.00,0.0067
3803.00,0.0066
3802.00,0.0067
3801.00,0.0067
3800.00,0.0067
3799.00,0.0067
3798.00,0.0067
3797.00,0.0067
3796.00,0.0067
3795.00,0.0068
3794.00,0.0068
3793.00,0.0068
3792.00,0.0069
3791.00,0.0069
3790.00,0.0069
3789.00,0.0069
3788.00,0.0069
3787.00,0.0069
3786.00,0.0069
3785.00,0.0069
3784.00,0.0068
3783.00,0.0068
3782.00,0.0069
3781.00,0.0069
3780.00,0.0069
3779.00,0.0070
3778.00,0.0069
3777.00,0.0069
3776.00,0.0069
3775.00,0.0069
3774.00,0.0069
3773.00,0.0069
3772.00,0.0069
3771.00,0.0069
3770.00,0.0069
3769.00,0.0069
3768.00,0.0069
3767.00,0.0069
3766.00,0.0069
3765.00,0.0069
3764.00,0.0069
3763.00,0.0069
3762.00,0.0068
3761.00,0.0068
3760.00,0.0068
3759.00,0.0067
3758.00,0.0067
3757.00,0.0068
3756.00,0.0068
3755.00,0.0068
3754.00,0.0068
3753.00,0.0068
3752.00,0.0068
3751.00,0.0068
3750.00,0.0068
3749.00,0.0068
3748.00,0.0068
3747.00,0.0068
3746.00,0.0067
3745.00,0.0067
3744.00,0.0067
3743.00,0.0067
3742.00,0.0068
3741.00,0.0068
3740.00,0.0067
3739.00,0.0068
3738.00,0.0068
3737.00,0.0068
3736.00,0.0068
3735.00,0.0068
3734.00,0.0068
3733.00,0.0068
3732.00,0.0068
3731.00,0.0068
3730.00,0.0068
3729.00,0.0068
3728.00,0.0068
3727.00,0.0069
3726.00,0.0069
3725.00,0.0069
3724.00,0.0069
3723.00,0.0069
3722.00,0.0070
3721.00,0.0070
3720.00,0.0071
3719.00,0.0071
3718.00,0.0071
3717.00,0.0070
3716.00,0.0070
3715.00,0.0070
3714.00,0.0070
3713.00,0.0070
3712.00,0.0070
3711.00,0.0070
3710.00,0.0069
3709.00,0.0069
3708.00,0.0068
3707.00,0.0068
3706.00,0.0069
3705.00,0.0069
3704.00,0.0070
3703.00,0.0070
3702.00,0.0070
3701.00,0.0070
3700.00,0.0069
3699.00,0.0069
3698.00,0.0069
3697.00,0.0070
3696.00,0.0070
3695.00,0.0070
3694.00,0.0070
3693.00,0.0070
3692.00,0.0070
3691.00,0.0070
3690.00,0.0070
3689.00,0.0069
3688.00,0.0069
3687.00,0.0069
3686.00,0.0069
3685.00,0.0069
3684.00,0.0069
3683.00,0.0069
3682.00,0.0070
3681.00,0.0070
3680.00,0.0071
3679.00,0.0072
3678.00,0.0072
3677.00,0.0072
3676.00,0.0071
3675.00,0.0071
3674.00,0.0070
3673.00,0.0069
3672.00,0.0069
3671.00,0.0068
3670.00,0.0068
3669.00,0.0068
3668.00,0.0069
3667.00,0.0069
3666.00,0.0069
3665.00,0.0070
3664.00,0.0070
3663.00,0.0071
3662.00,0.0071
3661.00,0.0071
3660.00,0.0071
3659.00,0.0071
3658.00,0.0071
3657.00,0.0071
3656.00,0.0072
3655.00,0.0072
3654.00,0.0073
3653.00,0.0072
3652.00,0.0072
3651.00,0.0071
3650.00,0.0070
3649.00,0.0070
3648.00,0.0069
3647.00,0.0069
3646.00,0.0070
3645.00,0.0070
3644.00,0.0071
3643.00,0.0071
3642.00,0.0071
3641.00,0.0071
3640.00,0.0071
3639.00,0.0071
3638.00,0.0070
3637.00,0.0071
3636.00,0.0071
3635.00,0.0071
3634.00,0.0071
3633.00,0.0071
3632.00,0.0071
3631.00,0.0071
3630.00,0.0070
3629.00,0.0070
3628.00,0.0070
3627.00,0.0070
3626.00,0.0070
3625.00,0.0070
3624.00,0.0070
3623.00,0.0070
3622.00,0.0070
3621.00,0.0070
3620.00,0.0070
3619.00,0.0070
3618.00,0.0070
3617.00,0.0070
3616.00,0.0069
3615.00,0.0069
3614.00,0.0069
3613.00,0.0068
3612.00,0.0068
3611.00,0.0068
3610.00,0.0069
3609.00,0.0069
3608.00,0.0070
3607.00,0.0070
3606.00,0.0070
3605.00,0.0070
3604.00,0.0069
3603.00,0.0069
3602.00,0.0069
3601.00,0.0069
3600.00,0.0069
3599.00,0.0069
3598.00,0.0068
3597.00,0.0068
3596.00,0.0068
3595.00,0.0069
3594.00,0.0069
3593.00,0.0069
3592.00,0.0069
3591.00,0.0069
3590.00,0.0070
3589.00,0.0070
3588.00,0.0071
3587.00,0.0071
3586.00,0.0070
3585.00,0.0070
3584.00,0.0071
3583.00,0.0071
3582.00,0.0071
3581.00,0.0071
3580.00,0.0070
3579.00,0.0070
3578.00,0.0070
3577.00,0.0070
3576.00,0.0070
3575.00,0.0070
3574.00,0.0070
3573.00,0.0070
3572.00,0.0070
3571.00,0.0070
3570.00,0.0070
3569.00,0.0070
3568.00,0.0070
3567.00,0.0070
3566.00,0.0070
3565.00,0.0070
3564.00,0.0070
3563.00,0.0069
3562.00,0.0069
3561.00,0.0069
3560.00,0.0070
3559.00,0.0070
3558.00,0.0070
3557.00,0.0070
3556.00,0.0070
3555.00,0.0070
3554.00,0.0070
3553.00,0.0070
3552.00,0.0070
3551.00,0.0070
3550.00,0.0070
3549.00,0.0070
3548.00,0.0071
3547.00,0.0071
3546.00,0.0071
3545.00,0.0071
3544.00,0.0071
3543.00,0.0071
3542.00,0.0071
3541.00,0.0071
3540.00,0.0070
3539.00,0.0070
3538.00,0.0070
3537.00,0.0070
3536.00,0.0071
3535.00,0.0071
3534.00,0.0072
3533.00,0.0072
3532.00,0.0071
3531.00,0.0071
3530.00,0.0070
3529.00,0.0070
3528.00,0.0070
3527.00,0.0070
3526.00,0.0071
3525.00,0.0071
3524.00,0.0071
3523.00,0.0071
3522.00,0.0071
3521.00,0.0071
3520.00,0.0071
3519.00,0.0070
3518.00,0.0070
3517.00,0.0070
3516.00,0.0070
3515.00,0.0070
3514.00,0.0070
3513.00,0.0071
3512.00,0.0071
3511.00,0.0071
3510.00,0.0071
3509.00,0.0070
3508.00,0.0070
3507.00,0.0070
3506.00,0.0071
3505.00,0.0072
3504.00,0.0072
3503.00,0.0072
3502.00,0.0072
3501.00,0.0072
3500.00,0.0072
3499.00,0.0072
3498.00,0.0072
3497.00,0.0071
3496.00,0.0071
3495.00,0.0072
3494.00,0.0072
3493.00,0.0072
3492.00,0.0072
3491.00,0.0072
3490.00,0.0071
3489.00,0.0071
3488.00,0.0071
3487.00,0.0071
3486.00,0.0071
3485.00,0.0071
3484.00,0.0072
3483.00,0.0072
3482.00,0.0071
3481.00,0.0071
3480.00,0.0071
3479.00,0.0071
3478.00,0.0071
3477.00,0.0071
3476.00,0.0072
3475.00,0.0073
3474.00,0.0073
3473.00,0.0073
3472.00,0.0072
3471.00,0.0072
3470.00,0.0071
3469.00,0.0071
3468.00,0.0071
3467.00,0.0071
3466.00,0.0071
3465.00,0.0072
3464.00,0.0072
3463.00,0.0071
3462.00,0.0071
3461.00,0.0071
3460.00,0.0071
3459.00,0.0072
3458.00,0.0072
3457.00,0.0072
3456.00,0.0072
3455.00,0.0072
3454.00,0.0072
3453.00,0.0072
3452.00,0.0073
3451.00,0.0073
3450.00,0.0073
3449.00,0.0073
3448.00,0.0073
3447.00,0.0073
3446.00,0.0072
3445.00,0.0072
3444.00,0.0073
3443.00,0.0073
3442.00,0.0073
3441.00,0.0073
3440.00,0.0072
3439.00,0.0072
3438.00,0.0072
3437.00,0.0072
3436.00,0.0072
3435.00,0.0072
3434.00,0.0072
3433.00,0.0073
3432.00,0.0073
3431.00,0.0073
3430.00,0.0072
3429.00,0.0072
3428.00,0.0072
3427.00,0.0073
3426.00,0.0073
3425.00,0.0073
3424.00,0.0073
3423.00,0.0073
3422.00,0.0073
3421.00,0.0073
3420.00,0.0073
3419.00,0.0073
3418.00,0.0073
3417.00,0.0073
3416.00,0.0073
3415.00,0.0073
3414.00,0.0072
3413.00,0.0072
3412.00,0.0072
3411.00,0.0072
3410.00,0.0072
3409.00,0.0073
3408.00,0.0073
3407.00,0.0073
3406.00,0.0073
3405.00,0.0073
3404.00,0.0073
3403.00,0.0073
3402.00,0.0073
3401.00,0.0074
3400.00,0.0074
3399.00,0.0074
3398.00,0.0074
3397.00,0.0074
3396.00,0.0074
3395.00,0.0074
3394.00,0.0074
3393.00,0.0074
3392.00,0.0074
3391.00,0.0073
3390.00,0.0073
3389.00,0.0073
3388.00,0.0073
3387.00,0.0072
3386.00,0.0073
3385.00,0.0073
3384.00,0.0073
3383.00,0.0073
3382.00,0.0073
3381.00,0.0074
3380.00,0.0074
3379.00,0.0073
3378.00,0.0073
3377.00,0.0072
3376.00,0.0073
3375.00,0.0073
3374.00,0.0073
3373.00,0.0074
3372.00,0.0074
3371.00,0.0074
3370.00,0.0074
3369.00,0.0074
3368.00,0.0074
3367.00,0.0074
3366.00,0.0074
3365.00,0.0074
3364.00,0.0073
3363.00,0.0073
3362.00,0.0073
3361.00,0.0073
3360.00,0.0073
3359.00,0.0074
3358.00,0.0074
3357.00,0.0075
3356.00,0.0075
3355.00,0.0075
3354.00,0.0075
3353.00,0.0074
3352.00,0.0074
3351.00,0.0074
3350.00,0.0074
3349.00,0.0074
3348.00,0.0074
3347.00,0.0074
3346.00,0.0074
3345.00,0.0074
3344.00,0.0074
3343.00,0.0075
3342.00,0.0075
3341.00,0.0074
3340.00,0.0074
3339.00,0.0074
3338.00,0.0074
3337.00,0.0075
3336.00,0.0075
3335.00,0.0075
3334.00,0.0075
3333.00,0.0075
3332.00,0.0075
3331.00,0.0075
3330.00,0.0075
3329.00,0.0075
3328.00,0.0075
3327.00,0.0075
3326.00,0.0075
3325.00,0.0075
3324.00,0.0075
3323.00,0.0075
3322.00,0.0075
3321.00,0.0075
3320.00,0.0075
3319.00,0.0075
3318.00,0.0075
3317.00,0.0075
3316.00,0.0075
3315.00,0.0075
3314.00,0.0075
3313.00,0.0075
3312.00,0.0075
3311.00,0.0076
3310.00,0.0076
3309.00,0.0076
3308.00,0.0076
3307.00,0.0076
3306.00,0.0076
3305.00,0.0076
3304.00,0.0076
3303.00,0.0076
3302.00,0.0076
3301.00,0.0076
3300.00,0.0076
3299.00,0.0076
3298.00,0.0076
3297.00,0.0076
3296.00,0.0076
3295.00,0.0076
3294.00,0.0076
3293.00,0.0076
3292.00,0.0076
3291.00,0.0076
3290.00,0.0076
3289.00,0.0076
3288.00,0.0076
3287.00,0.0076
3286.00,0.0076
3285.00,0.0076
3284.00,0.0076
3283.00,0.0076
3282.00,0.0075
3281.00,0.0076
3280.00,0.0076
3279.00,0.0075
3278.00,0.0075
3277.00,0.0075
3276.00,0.0074
3275.00,0.0074
3274.00,0.0074
3273.00,0.0074
3272.00,0.0074
3271.00,0.0075
3270.00,0.0075
3269.00,0.0076
3268.00,0.0076
3267.00,0.0076
3266.00,0.0075
3265.00,0.0075
3264.00,0.0075
3263.00,0.0075
3262.00,0.0075
3261.00,0.0076
3260.00,0.0076
3259.00,0.0076
3258.00,0.0076
3257.00,0.0076
3256.00,0.0076
3255.00,0.0076
3254.00,0.0076
3253.00,0.0077
3252.00,0.0077
3251.00,0.0077
3250.00,0.0077
3249.00,0.0076
3248.00,0.0076
3247.00,0.0076
3246.00,0.0076
3245.00,0.0076
3244.00,0.0076
3243.00,0.0076
3242.00,0.0076
3241.00,0.0076
3240.00,0.0076
3239.00,0.0076
3238.00,0.0075
3237.00,0.0075
3236.00,0.0076
3235.00,0.0076
3234.00,0.0076
3233.00,0.0076
3232.00,0.0076
3231.00,0.0076
3230.00,0.0077
3229.00,0.0077
3228.00,0.0077
3227.00,0.0077
3226.00,0.0077
3225.00,0.0077
3224.00,0.0077
3223.00,0.0076
3222.00,0.0076
3221.00,0.0076
3220.00,0.0077
3219.00,0.0077
3218.00,0.0077
3217.00,0.0077
3216.00,0.0077
3215.00,0.0077
3214.00,0.0077
3213.00,0.0077
3212.00,0.0077
3211.00,0.0076
3210.00,0.0076
3209.00,0.0076
3208.00,0.0076
3207.00,0.0076
3206.00,0.0076
3205.00,0.0076
3204.00,0.0076
3203.00,0.0077
3202.00,0.0077
3201.00,0.0077
3200.00,0.0077
3199.00,0.0077
3198.00,0.0077
3197.00,0.0076
3196.00,0.0076
3195.00,0.0076
3194.00,0.0075
3193.00,0.0075
3192.00,0.0075
3191.00,0.0075
3190.00,0.0076
3189.00,0.0076
3188.00,0.0076
3187.00,0.0077
3186.00,0.0077
3185.00,0.0077
3184.00,0.0077
3183.00,0.0077
3182.00,0.0077
3181.00,0.0076
3180.00,0.0076
3179.00,0.0076
3178.00,0.0076
3177.00,0.0076
3176.00,0.0076
3175.00,0.0076
3174.00,0.0076
3173.00,0.0076
3172.00,0.0076
3171.00,0.0077
3170.00,0.0077
3169.00,0.0077
3168.00,0.0077
3167.00,0.0076
3166.00,0.0076
3165.00,0.0076
3164.00,0.0077
3163.00,0.0077
3162.00,0.0077
3161.00,0.0077
3160.00,0.0076
3159.00,0.0076
3158.00,0.0077
3157.00,0.0077
3156.00,0.0077
3155.00,0.0077
3154.00,0.0077
3153.00,0.0076
3152.00,0.0076
3151.00,0.0076
3150.00,0.0076
3149.00,0.0077
3148.00,0.0077
3147.00,0.0077
3146.00,0.0076
3145.00,0.0076
3144.00,0.0076
3143.00,0.0076
3142.00,0.0076
3141.00,0.0076
3140.00,0.0076
3139.00,0.0076
3138.00,0.0076
3137.00,0.0076
3136.00,0.0076
3135.00,0.0076
3134.00,0.0076
3133.00,0.0076
3132.00,0.0076
3131.00,0.0076
3130.00,0.0076
3129.00,0.0076
3128.00,0.0076
3127.00,0.0076
3126.00,0.0076
3125.00,0.0076
3124.00,0.0076
3123.00,0.0076
3122.00,0.0076
3121.00,0.0077
3120.00,0.0077
3119.00,0.0077
3118.00,0.0077
3117.00,0.0077
3116.00,0.0077
3115.00,0.0077
3114.00,0.0077
3113.00,0.0078
3112.00,0.0078
3111.00,0.0079
3110.00,0.0080
3109.00,0.0081
3108.00,0.0082
3107.00,0.0082
3106.00,0.0082
3105.00,0.0082
3104.00,0.0082
3103.00,0.0082
3102.00,0.0081
3101.00,0.0082
3100.00,0.0082
3099.00,0.0082
3098.00,0.0082
3097.00,0.0082
3096.00,0.0082
3095.00,0.0082
3094.00,0.0083
3093.00,0.0084
3092.00,0.0086
3091.00,0.0087
3090.00,0.0089
3089.00,0.0091
3088.00,0.0092
3087.00,0.0094
3086.00,0.0095
3085.00,0.0095
3084.00,0.0096
3083.00,0.0096
3082.00,0.0095
3081.00,0.0095
3080.00,0.0093
3079.00,0.0092
3078.00,0.0092
3077.00,0.0092
3076.00,0.0093
3075.00,0.0093
3074.00,0.0093
3073.00,0.0094
3072.00,0.0095
3071.00,0.0095
3070.00,0.0097
3069.00,0.0098
3068.00,0.0099
3067.00,0.0101
3066.00,0.0102
3065.00,0.0104
3064.00,0.0105
3063.00,0.0105
3062.00,0.0106
3061.00,0.0106
3060.00,0.0105
3059.00,0.0104
3058.00,0.0103
3057.00,0.0102
3056.00,0.0101
3055.00,0.0100
3054.00,0.0098
3053.00,0.0096
3052.00,0.0095
3051.00,0.0094
3050.00,0.0093
3049.00,0.0093
3048.00,0.0093
3047.00,0.0093
3046.00,0.0093
3045.00,0.0094
3044.00,0.0095
3043.00,0.0095
3042.00,0.0097
3041.00,0.0098
3040.00,0.0099
3039.00,0.0101
3038.00,0.0104
3037.00,0.0107
3036.00,0.0110
3035.00,0.0113
3034.00,0.0117
3033.00,0.0120
3032.00,0.0124
3031.00,0.0128
3030.00,0.0131
3029.00,0.0134
3028.00,0.0135
3027.00,0.0135
3026.00,0.0135
3025.00,0.0133
3024.00,0.0130
3023.00,0.0127
3022.00,0.0123
3021.00,0.0120
3020.00,0.0117
3019.00,0.0114
3018.00,0.0111
3017.00,0.0109
3016.00,0.0107
3015.00,0.0106
3014.00,0.0105
3013.00,0.0106
3012.00,0.0106
3011.00,0.0107
3010.00,0.0108
3009.00,0.0109
3008.00,0.0109
3007.00,0.0110
3006.00,0.0111
3005.00,0.0111
3004.00,0.0110
3003.00,0.0109
3002.00,0.0108
3001.00,0.0108
3000.00,0.0107
2999.00,0.0105
2998.00,0.0104
2997.00,0.0103
2996.00,0.0102
2995.00,0.0101
2994.00,0.0101
2993.00,0.0100
2992.00,0.0100
2991.00,0.0100
2990.00,0.0100
2989.00,0.0100
2988.00,0.0100
2987.00,0.0100
2986.00,0.0100
2985.00,0.0100
2984.00,0.0100
2983.00,0.0101
2982.00,0.0101
2981.00,0.0101
2980.00,0.0102
2979.00,0.0102
2978.00,0.0102
2977.00,0.0102
2976.00,0.0102
2975.00,0.0102
2974.00,0.0102
2973.00,0.0102
2972.00,0.0102
2971.00,0.0103
2970.00,0.0103
2969.00,0.0104
2968.00,0.0104
2967.00,0.0105
2966.00,0.0106
2965.00,0.0108
2964.00,0.0109
2963.00,0.0111
2962.00,0.0113
2961.00,0.0115
2960.00,0.0118
2959.00,0.0120
2958.00,0.0122
2957.00,0.0124
2956.00,0.0127
2955.00,0.0129
2954.00,0.0132
2953.00,0.0134
2952.00,0.0137
2951.00,0.0139
2950.00,0.0141
2949.00,0.0144
2948.00,0.0146
2947.00,0.0149
2946.00,0.0152
2945.00,0.0155
2944.00,0.0158
2943.00,0.0161
2942.00,0.0163
2941.00,0.0166
2940.00,0.0168
2939.00,0.0171
2938.00,0.0173
2937.00,0.0175
2936.00,0.0178
2935.00,0.0181
2934.00,0.0184
2933.00,0.0186
2932.00,0.0189
2931.00,0.0191
2930.00,0.0193
2929.00,0.0195
2928.00,0.0197
2927.00,0.0199
2926.00,0.0201
2925.00,0.0202
2924.00,0.0204
2923.00,0.0205
2922.00,0.0206
2921.00,0.0206
2920.00,0.0207
2919.00,0.0207
2918.00,0.0207
2917.00,0.0206
2916.00,0.0204
2915.00,0.0202
2914.00,0.0199
2913.00,0.0195
2912.00,0.0192
2911.00,0.0189
2910.00,0.0186
2909.00,0.0184
2908.00,0.0182
2907.00,0.0179
2906.00,0.0177
2905.00,0.0174
2904.00,0.0171
2903.00,0.0169
2902.00,0.0167
2901.00,0.0165
2900.00,0.0163
2899.00,0.0160
2898.00,0.0158
2897.00,0.0156
2896.00,0.0155
2895.00,0.0153
2894.00,0.0152
2893.00,0.0150
2892.00,0.0148
2891.00,0.0147
2890.00,0.0145
2889.00,0.0143
2888.00,0.0142
2887.00,0.0141
2886.00,0.0139
2885.00,0.0138
2884.00,0.0136
2883.00,0.0135
2882.00,0.0133
2881.00,0.0132
2880.00,0.0131
2879.00,0.0129
2878.00,0.0128
2877.00,0.0127
2876.00,0.0127
2875.00,0.0126
2874.00,0.0126
2873.00,0.0126
2872.00,0.0126
2871.00,0.0126
2870.00,0.0126
2869.00,0.0127
2868.00,0.0127
2867.00,0.0127
2866.00,0.0128
2865.00,0.0129
2864.00,0.0130
2863.00,0.0131
2862.00,0.0132
2861.00,0.0133
2860.00,0.0135
2859.00,0.0136
2858.00,0.0137
2857.00,0.0138
2856.00,0.0139
2855.00,0.0140
2854.00,0.0142
2853.00,0.0143
2852.00,0.0144
2851.00,0.0145
2850.00,0.0146
2849.00,0.0146
2848.00,0.0145
2847.00,0.0144
2846.00,0.0143
2845.00,0.0142
2844.00,0.0141
2843.00,0.0139
2842.00,0.0137
2841.00,0.0135
2840.00,0.0133
2839.00,0.0131
2838.00,0.0129
2837.00,0.0126
2836.00,0.0124
2835.00,0.0121
2834.00,0.0119
2833.00,0.0116
2832.00,0.0114
2831.00,0.0112
2830.00,0.0111
2829.00,0.0109
2828.00,0.0108
2827.00,0.0106
2826.00,0.0105
2825.00,0.0104
2824.00,0.0103
2823.00,0.0102
2822.00,0.0101
2821.00,0.0100
2820.00,0.0099
2819.00,0.0098
2818.00,0.0097
2817.00,0.0097
2816.00,0.0097
2815.00,0.0097
2814.00,0.0096
2813.00,0.0096
2812.00,0.0096
2811.00,0.0096
2810.00,0.0095
2809.00,0.0095
2808.00,0.0095
2807.00,0.0095
2806.00,0.0094
2805.00,0.0094
2804.00,0.0094
2803.00,0.0094
2802.00,0.0093
2801.00,0.0093
2800.00,0.0093
2799.00,0.0093
2798.00,0.0093
2797.00,0.0093
2796.00,0.0093
2795.00,0.0093
2794.00,0.0093
2793.00,0.0092
2792.00,0.0092
2791.00,0.0092
2790.00,0.0091
2789.00,0.0091
2788.00,0.0091
2787.00,0.0091
2786.00,0.0091
2785.00,0.0092
2784.00,0.0092
2783.00,0.0092
2782.00,0.0091
2781.00,0.0091
2780.00,0.0091
2779.00,0.0091
2778.00,0.0091
2777.00,0.0091
2776.00,0.0090
2775.00,0.0090
2774.00,0.0090
2773.00,0.0090
2772.00,0.0090
2771.00,0.0090
2770.00,0.0090
2769.00,0.0090
2768.00,0.0089
2767.00,0.0089
2766.00,0.0088
2765.00,0.0089
2764.00,0.0089
2763.00,0.0089
2762.00,0.0089
2761.00,0.0089
2760.00,0.0089
2759.00,0.0089
2758.00,0.0089
2757.00,0.0089
2756.00,0.0089
2755.00,0.0089
2754.00,0.0089
2753.00,0.0089
2752.00,0.0089
2751.00,0.0089
2750.00,0.0089
2749.00,0.0089
2748.00,0.0089
2747.00,0.0088
2746.00,0.0088
2745.00,0.0089
2744.00,0.0089
2743.00,0.0088
2742.00,0.0088
2741.00,0.0088
2740.00,0.0088
2739.00,0.0088
2738.00,0.0088
2737.00,0.0089
2736.00,0.0089
2735.00,0.0089
2734.00,0.0089
2733.00,0.0088
2732.00,0.0088
2731.00,0.0089
2730.00,0.0089
2729.00,0.0089
2728.00,0.0089
2727.00,0.0089
2726.00,0.0089
2725.00,0.0089
2724.00,0.0089
2723.00,0.0089
2722.00,0.0089
2721.00,0.0089
2720.00,0.0089
2719.00,0.0089
2718.00,0.0089
2717.00,0.0089
2716.00,0.0089
2715.00,0.0089
2714.00,0.0089
2713.00,0.0089
2712.00,0.0088
2711.00,0.0088
2710.00,0.0088
2709.00,0.0088
2708.00,0.0089
2707.00,0.0089
2706.00,0.0089
2705.00,0.0089
2704.00,0.0089
2703.00,0.0089
2702.00,0.0088
2701.00,0.0088
2700.00,0.0088
2699.00,0.0088
2698.00,0.0088
2697.00,0.0088
2696.00,0.0088
2695.00,0.0088
2694.00,0.0088
2693.00,0.0089
2692.00,0.0089
2691.00,0.0089
2690.00,0.0089
2689.00,0.0089
2688.00,0.0089
2687.00,0.0088
2686.00,0.0088
2685.00,0.0089
2684.00,0.0089
2683.00,0.0089
2682.00,0.0089
2681.00,0.0089
2680.00,0.0089
2679.00,0.0089
2678.00,0.0089
2677.00,0.0089
2676.00,0.0089
2675.00,0.0089
2674.00,0.0089
2673.00,0.0089
2672.00,0.0089
2671.00,0.0089
2670.00,0.0089
2669.00,0.0089
2668.00,0.0089
2667.00,0.0089
2666.00,0.0089
2665.00,0.0089
2664.00,0.0089
2663.00,0.0089
2662.00,0.0089
2661.00,0.0089
2660.00,0.0090
2659.00,0.0090
2658.00,0.0090
2657.00,0.0090
2656.00,0.0090
2655.00,0.0090
2654.00,0.0090
2653.00,0.0090
2652.00,0.0090
2651.00,0.0090
2650.00,0.0090
2649.00,0.0090
2648.00,0.0090
2647.00,0.0091
2646.00,0.0091
2645.00,0.0091
2644.00,0.0091
2643.00,0.0091
2642.00,0.0091
2641.00,0.0091
2640.00,0.0092
2639.00,0.0092
2638.00,0.0092
2637.00,0.0092
2636.00,0.0092
2635.00,0.0092
2634.00,0.0092
2633.00,0.0092
2632.00,0.0092
2631.00,0.0092
2630.00,0.0092
2629.00,0.0092
2628.00,0.0091
2627.00,0.0091
2626.00,0.0091
2625.00,0.0092
2624.00,0.0092
2623.00,0.0092
2622.00,0.0092
2621.00,0.0092
2620.00,0.0091
2619.00,0.0091
2618.00,0.0091
2617.00,0.0092
2616.00,0.0092
2615.00,0.0092
2614.00,0.0092
2613.00,0.0092
2612.00,0.0092
2611.00,0.0092
2610.00,0.0092
2609.00,0.0092
2608.00,0.0092
2607.00,0.0092
2606.00,0.0092
2605.00,0.0092
2604.00,0.0092
2603.00,0.0093
2602.00,0.0093
2601.00,0.0093
2600.00,0.0093
2599.00,0.0093
2598.00,0.0093
2597.00,0.0093
2596.00,0.0093
2595.00,0.0092
2594.00,0.0092
2593.00,0.0092
2592.00,0.0092
2591.00,0.0092
2590.00,0.0093
2589.00,0.0093
2588.00,0.0093
2587.00,0.0093
2586.00,0.0092
2585.00,0.0092
2584.00,0.0092
2583.00,0.0092
2582.00,0.0092
2581.00,0.0092
2580.00,0.0092
2579.00,0.0092
2578.00,0.0092
2577.00,0.0092
2576.00,0.0092
2575.00,0.0092
2574.00,0.0092
2573.00,0.0092
2572.00,0.0093
2571.00,0.0092
2570.00,0.0092
2569.00,0.0092
2568.00,0.0092
2567.00,0.0093
2566.00,0.0093
2565.00,0.0093
2564.00,0.0093
2563.00,0.0093
2562.00,0.0093
2561.00,0.0093
2560.00,0.0093
2559.00,0.0093
2558.00,0.0092
2557.00,0.0092
2556.00,0.0092
2555.00,0.0092
2554.00,0.0092
2553.00,0.0092
2552.00,0.0092
2551.00,0.0092
2550.00,0.0092
2549.00,0.0092
2548.00,0.0092
2547.00,0.0093
2546.00,0.0093
2545.00,0.0093
2544.00,0.0093
2543.00,0.0093
2542.00,0.0093
2541.00,0.0093
2540.00,0.0093
2539.00,0.0093
2538.00,0.0093
2537.00,0.0093
2536.00,0.0093
2535.00,0.0093
2534.00,0.0093
2533.00,0.0093
2532.00,0.0093
2531.00,0.0092
2530.00,0.0092
2529.00,0.0092
2528.00,0.0092
2527.00,0.0093
2526.00,0.0092
2525.00,0.0092
2524.00,0.0092
2523.00,0.0092
2522.00,0.0092
2521.00,0.0092
2520.00,0.0092
2519.00,0.0092
2518.00,0.0092
2517.00,0.0092
2516.00,0.0093
2515.00,0.0093
2514.00,0.0094
2513.00,0.0094
2512.00,0.0093
2511.00,0.0093
2510.00,0.0092
2509.00,0.0092
2508.00,0.0092
2507.00,0.0093
2506.00,0.0093
2505.00,0.0093
2504.00,0.0093
2503.00,0.0093
2502.00,0.0092
2501.00,0.0092
2500.00,0.0092
2499.00,0.0093
2498.00,0.0093
2497.00,0.0092
2496.00,0.0092
2495.00,0.0092
2494.00,0.0092
2493.00,0.0092
2492.00,0.0092
2491.00,0.0092
2490.00,0.0092
2489.00,0.0093
2488.00,0.0093
2487.00,0.0094
2486.00,0.0093
2485.00,0.0093
2484.00,0.0092
2483.00,0.0092
2482.00,0.0092
2481.00,0.0092
2480.00,0.0093
2479.00,0.0093
2478.00,0.0093
2477.00,0.0093
2476.00,0.0093
2475.00,0.0093
2474.00,0.0093
2473.00,0.0094
2472.00,0.0093
2471.00,0.0093
2470.00,0.0092
2469.00,0.0092
2468.00,0.0092
2467.00,0.0092
2466.00,0.0092
2465.00,0.0093
2464.00,0.0093
2463.00,0.0093
2462.00,0.0093
2461.00,0.0093
2460.00,0.0093
2459.00,0.0094
2458.00,0.0094
2457.00,0.0094
2456.00,0.0094
2455.00,0.0094
2454.00,0.0094
2453.00,0.0094
2452.00,0.0093
2451.00,0.0093
2450.00,0.0093
2449.00,0.0093
2448.00,0.0093
2447.00,0.0093
2446.00,0.0093
2445.00,0.0093
2444.00,0.0093
2443.00,0.0093
2442.00,0.0093
2441.00,0.0093
2440.00,0.0093
2439.00,0.0093
2438.00,0.0093
2437.00,0.0093
2436.00,0.0094
2435.00,0.0094
2434.00,0.0094
2433.00,0.0094
2432.00,0.0094
2431.00,0.0094
2430.00,0.0094
2429.00,0.0094
2428.00,0.0094
2427.00,0.0094
2426.00,0.0093
2425.00,0.0093
2424.00,0.0093
2423.00,0.0093
2422.00,0.0093
2421.00,0.0093
2420.00,0.0093
2419.00,0.0093
2418.00,0.0093
2417.00,0.0093
2416.00,0.0093
2415.00,0.0093
2414.00,0.0093
2413.00,0.0093
2412.00,0.0093
2411.00,0.0093
2410.00,0.0093
2409.00,0.0094
2408.00,0.0094
2407.00,0.0094
2406.00,0.0094
2405.00,0.0094
2404.00,0.0094
2403.00,0.0094
2402.00,0.0093
2401.00,0.0093
2400.00,0.0093
2399.00,0.0093
2398.00,0.0093
2397.00,0.0093
2396.00,0.0093
2395.00,0.0093
2394.00,0.0092
2393.00,0.0092
2392.00,0.0092
2391.00,0.0092
2390.00,0.0092
2389.00,0.0092
2388.00,0.0093
2387.00,0.0093
2386.00,0.0092
2385.00,0.0092
2384.00,0.0092
2383.00,0.0092
2382.00,0.0091
2381.00,0.0091
2380.00,0.0091
2379.00,0.0091
2378.00,0.0091
2377.00,0.0091
2376.00,0.0091
2375.00,0.0091
2374.00,0.0091
2373.00,0.0091
2372.00,0.0090
2371.00,0.0090
2370.00,0.0089
2369.00,0.0089
2368.00,0.0090
2367.00,0.0090
2366.00,0.0091
2365.00,0.0092
2364.00,0.0092
2363.00,0.0092
2362.00,0.0092
2361.00,0.0091
2360.00,0.0091
2359.00,0.0091
2358.00,0.0092
2357.00,0.0092
2356.00,0.0092
2355.00,0.0092
2354.00,0.0092
2353.00,0.0092
2352.00,0.0091
2351.00,0.0092
2350.00,0.0092
2349.00,0.0092
2348.00,0.0093
2347.00,0.0093
2346.00,0.0093
2345.00,0.0093
2344.00,0.0093
2343.00,0.0093
2342.00,0.0092
2341.00,0.0092
2340.00,0.0092
2339.00,0.0093
2338.00,0.0094
2337.00,0.0094
2336.00,0.0094
2335.00,0.0093
2334.00,0.0093
2333.00,0.0093
2332.00,0.0093
2331.00,0.0092
2330.00,0.0093
2329.00,0.0093
2328.00,0.0093
2327.00,0.0093
2326.00,0.0094
2325.00,0.0095
2324.00,0.0096
2323.00,0.0097
2322.00,0.0096
2321.00,0.0096
2320.00,0.0095
2319.00,0.0095
2318.00,0.0095
2317.00,0.0095
2316.00,0.0096
2315.00,0.0096
2314.00,0.0096
2313.00,0.0096
2312.00,0.0096
2311.00,0.0095
2310.00,0.0095
2309.00,0.0095
2308.00,0.0095
2307.00,0.0095
2306.00,0.0095
2305.00,0.0096
2304.00,0.0096
2303.00,0.0096
2302.00,0.0096
2301.00,0.0097
2300.00,0.0097
2299.00,0.0097
2298.00,0.0097
2297.00,0.0097
2296.00,0.0097
2295.00,0.0097
2294.00,0.0097
2293.00,0.0097
2292.00,0.0098
2291.00,0.0098
2290.00,0.0099
2289.00,0.0099
2288.00,0.0100
2287.00,0.0100
2286.00,0.0100
2285.00,0.0100
2284.00,0.0100
2283.00,0.0100
2282.00,0.0099
2281.00,0.0099
2280.00,0.0098
2279.00,0.0098
2278.00,0.0099
2277.00,0.0099
2276.00,0.0100
2275.00,0.0100
2274.00,0.0100
2273.00,0.0099
2272.00,0.0099
2271.00,0.0099
2270.00,0.0099
2269.00,0.0099
2268.00,0.0100
2267.00,0.0100
2266.00,0.0100
2265.00,0.0099
2264.00,0.0099
2263.00,0.0099
2262.00,0.0099
2261.00,0.0099
2260.00,0.0099
2259.00,0.0100
2258.00,0.0101
2257.00,0.0102
2256.00,0.0102
2255.00,0.0102
2254.00,0.0102
2253.00,0.0102
2252.00,0.0103
2251.00,0.0103
2250.00,0.0105
2249.00,0.0107
2248.00,0.0109
2247.00,0.0112
2246.00,0.0115
2245.00,0.0119
2244.00,0.0123
2243.00,0.0128
2242.00,0.0132
2241.00,0.0137
2240.00,0.0141
2239.00,0.0144
2238.00,0.0146
2237.00,0.0147
2236.00,0.0146
2235.00,0.0144
2234.00,0.0141
2233.00,0.0137
2232.00,0.0133
2231.00,0.0128
2230.00,0.0122
2229.00,0.0118
2228.00,0.0113
2227.00,0.0110
2226.00,0.0108
2225.00,0.0106
2224.00,0.0105
2223.00,0.0104
2222.00,0.0103
2221.00,0.0104
2220.00,0.0105
2219.00,0.0106
2218.00,0.0106
2217.00,0.0107
2216.00,0.0107
2215.00,0.0108
2214.00,0.0108
2213.00,0.0107
2212.00,0.0106
2211.00,0.0105
2210.00,0.0104
2209.00,0.0104
2208.00,0.0104
2207.00,0.0105
2206.00,0.0105
2205.00,0.0104
2204.00,0.0104
2203.00,0.0104
2202.00,0.0105
2201.00,0.0106
2200.00,0.0106
2199.00,0.0106
2198.00,0.0105
2197.00,0.0105
2196.00,0.0106
2195.00,0.0106
2194.00,0.0105
2193.00,0.0105
2192.00,0.0105
2191.00,0.0105
2190.00,0.0106
2189.00,0.0107
2188.00,0.0108
2187.00,0.0108
2186.00,0.0109
2185.00,0.0109
2184.00,0.0109
2183.00,0.0108
2182.00,0.0107
2181.00,0.0106
2180.00,0.0106
2179.00,0.0106
2178.00,0.0107
2177.00,0.0109
2176.00,0.0110
2175.00,0.0110
2174.00,0.0109
2173.00,0.0107
2172.00,0.0106
2171.00,0.0105
2170.00,0.0106
2169.00,0.0108
2168.00,0.0109
2167.00,0.0110
2166.00,0.0111
2165.00,0.0111
2164.00,0.0111
2163.00,0.0111
2162.00,0.0111
2161.00,0.0109
2160.00,0.0106
2159.00,0.0102
2158.00,0.0098
2157.00,0.0096
2156.00,0.0096
2155.00,0.0097
2154.00,0.0097
2153.00,0.0097
2152.00,0.0098
2151.00,0.0099
2150.00,0.0100
2149.00,0.0100
2148.00,0.0100
2147.00,0.0100
2146.00,0.0100
2145.00,0.0101
2144.00,0.0101
2143.00,0.0101
2142.00,0.0101
2141.00,0.0101
2140.00,0.0102
2139.00,0.0101
2138.00,0.0101
2137.00,0.0101
2136.00,0.0101
2135.00,0.0101
2134.00,0.0101
2133.00,0.0100
2132.00,0.0099
2131.00,0.0099
2130.00,0.0098
2129.00,0.0099
2128.00,0.0099
2127.00,0.0099
2126.00,0.0099
2125.00,0.0099
2124.00,0.0099
2123.00,0.0100
2122.00,0.0100
2121.00,0.0100
2120.00,0.0101
2119.00,0.0102
2118.00,0.0103
2117.00,0.0103
2116.00,0.0102
2115.00,0.0102
2114.00,0.0101
2113.00,0.0101
2112.00,0.0102
2111.00,0.0102
2110.00,0.0103
2109.00,0.0103
2108.00,0.0103
2107.00,0.0103
2106.00,0.0103
2105.00,0.0103
2104.00,0.0102
2103.00,0.0102
2102.00,0.0101
2101.00,0.0102
2100.00,0.0103
2099.00,0.0103
2098.00,0.0104
2097.00,0.0104
2096.00,0.0103
2095.00,0.0102
2094.00,0.0101
2093.00,0.0100
2092.00,0.0100
2091.00,0.0100
2090.00,0.0101
2089.00,0.0101
2088.00,0.0101
2087.00,0.0101
2086.00,0.0101
2085.00,0.0102
2084.00,0.0102
2083.00,0.0102
2082.00,0.0101
2081.00,0.0101
2080.00,0.0102
2079.00,0.0102
2078.00,0.0102
2077.00,0.0102
2076.00,0.0102
2075.00,0.0103
2074.00,0.0103
2073.00,0.0104
2072.00,0.0104
2071.00,0.0103
2070.00,0.0103
2069.00,0.0103
2068.00,0.0104
2067.00,0.0105
2066.00,0.0106
2065.00,0.0106
2064.00,0.0105
2063.00,0.0104
2062.00,0.0103
2061.00,0.0103
2060.00,0.0104
2059.00,0.0103
2058.00,0.0103
2057.00,0.0103
2056.00,0.0103
2055.00,0.0103
2054.00,0.0103
2053.00,0.0103
2052.00,0.0104
2051.00,0.0106
2050.00,0.0107
2049.00,0.0108
2048.00,0.0107
2047.00,0.0107
2046.00,0.0107
2045.00,0.0108
2044.00,0.0108
2043.00,0.0108
2042.00,0.0107
2041.00,0.0107
2040.00,0.0107
2039.00,0.0109
2038.00,0.0110
2037.00,0.0111
2036.00,0.0110
2035.00,0.0108
2034.00,0.0106
2033.00,0.0105
2032.00,0.0106
2031.00,0.0108
2030.00,0.0109
2029.00,0.0109
2028.00,0.0109
2027.00,0.0108
2026.00,0.0107
2025.00,0.0106
2024.00,0.0105
2023.00,0.0105
2022.00,0.0104
2021.00,0.0104
2020.00,0.0104
2019.00,0.0104
2018.00,0.0104
2017.00,0.0106
2016.00,0.0107
2015.00,0.0108
2014.00,0.0108
2013.00,0.0108
2012.00,0.0108
2011.00,0.0108
2010.00,0.0108
2009.00,0.0108
2008.00,0.0107
2007.00,0.0105
2006.00,0.0104
2005.00,0.0103
2004.00,0.0103
2003.00,0.0104
2002.00,0.0105
2001.00,0.0106
2000.00,0.0107
1999.00,0.0106
1998.00,0.0105
1997.00,0.0105
1996.00,0.0105
1995.00,0.0106
1994.00,0.0107
1993.00,0.0107
1992.00,0.0107
1991.00,0.0107
1990.00,0.0108
1989.00,0.0109
1988.00,0.0109
1987.00,0.0110
1986.00,0.0110
1985.00,0.0109
1984.00,0.0109
1983.00,0.0109
1982.00,0.0110
1981.00,0.0112
1980.00,0.0113
1979.00,0.0114
1978.00,0.0113
1977.00,0.0111
1976.00,0.0110
1975.00,0.0111
1974.00,0.0112
1973.00,0.0112
1972.00,0.0113
1971.00,0.0113
1970.00,0.0113
1969.00,0.0113
1968.00,0.0113
1967.00,0.0112
1966.00,0.0112
1965.00,0.0112
1964.00,0.0113
1963.00,0.0113
1962.00,0.0114
1961.00,0.0113
1960.00,0.0112
1959.00,0.0111
1958.00,0.0111
1957.00,0.0111
1956.00,0.0111
1955.00,0.0110
1954.00,0.0109
1953.00,0.0109
1952.00,0.0110
1951.00,0.0111
1950.00,0.0112
1949.00,0.0113
1948.00,0.0113
1947.00,0.0112
1946.00,0.0111
1945.00,0.0110
1944.00,0.0110
1943.00,0.0111
1942.00,0.0111
1941.00,0.0111
1940.00,0.0110
1939.00,0.0110
1938.00,0.0110
1937.00,0.0110
1936.00,0.0110
1935.00,0.0109
1934.00,0.0108
1933.00,0.0108
1932.00,0.0108
1931.00,0.0107
1930.00,0.0107
1929.00,0.0106
1928.00,0.0106
1927.00,0.0107
1926.00,0.0107
1925.00,0.0107
1924.00,0.0107
1923.00,0.0107
1922.00,0.0106
1921.00,0.0106
1920.00,0.0107
1919.00,0.0107
1918.00,0.0106
1917.00,0.0106
1916.00,0.0106
1915.00,0.0106
1914.00,0.0107
1913.00,0.0107
1912.00,0.0106
1911.00,0.0106
1910.00,0.0106
1909.00,0.0106
1908.00,0.0106
1907.00,0.0107
1906.00,0.0107
1905.00,0.0107
1904.00,0.0107
1903.00,0.0108
1902.00,0.0108
1901.00,0.0108
1900.00,0.0108
1899.00,0.0108
1898.00,0.0108
1897.00,0.0108
1896.00,0.0109
1895.00,0.0109
1894.00,0.0110
1893.00,0.0111
1892.00,0.0112
1891.00,0.0112
1890.00,0.0112
1889.00,0.0112
1888.00,0.0111
1887.00,0.0111
1886.00,0.0110
1885.00,0.0111
1884.00,0.0111
1883.00,0.0111
1882.00,0.0111
1881.00,0.0111
1880.00,0.0111
1879.00,0.0111
1878.00,0.0111
1877.00,0.0111
1876.00,0.0111
1875.00,0.0110
1874.00,0.0110
1873.00,0.0110
1872.00,0.0110
1871.00,0.0110
1870.00,0.0110
1869.00,0.0110
1868.00,0.0109
1867.00,0.0109
1866.00,0.0108
1865.00,0.0108
1864.00,0.0107
1863.00,0.0107
1862.00,0.0107
1861.00,0.0107
1860.00,0.0107
1859.00,0.0107
1858.00,0.0107
1857.00,0.0107
1856.00,0.0106
1855.00,0.0106
1854.00,0.0106
1853.00,0.0106
1852.00,0.0105
1851.00,0.0105
1850.00,0.0105
1849.00,0.0105
1848.00,0.0106
1847.00,0.0106
1846.00,0.0106
1845.00,0.0106
1844.00,0.0107
1843.00,0.0107
1842.00,0.0107
1841.00,0.0107
1840.00,0.0106
1839.00,0.0106
1838.00,0.0107
1837.00,0.0107
1836.00,0.0107
1835.00,0.0107
1834.00,0.0107
1833.00,0.0107
1832.00,0.0107
1831.00,0.0107
1830.00,0.0108
1829.00,0.0108
1828.00,0.0108
1827.00,0.0109
1826.00,0.0109
1825.00,0.0109
1824.00,0.0110
1823.00,0.0110
1822.00,0.0110
1821.00,0.0110
1820.00,0.0110
1819.00,0.0110
1818.00,0.0110
1817.00,0.0110
1816.00,0.0110
1815.00,0.0110
1814.00,0.0111
1813.00,0.0111
1812.00,0.0111
1811.00,0.0111
1810.00,0.0111
1809.00,0.0111
1808.00,0.0110
1807.00,0.0110
1806.00,0.0110
1805.00,0.0111
1804.00,0.0110
1803.00,0.0110
1802.00,0.0110
1801.00,0.0110
1800.00,0.0110
1799.00,0.0110
1798.00,0.0109
1797.00,0.0109
1796.00,0.0109
1795.00,0.0108
1794.00,0.0108
1793.00,0.0108
1792.00,0.0107
1791.00,0.0107
1790.00,0.0107
1789.00,0.0107
1788.00,0.0108
1787.00,0.0108
1786.00,0.0108
1785.00,0.0108
1784.00,0.0108
1783.00,0.0108
1782.00,0.0108
1781.00,0.0108
1780.00,0.0108
1779.00,0.0108
1778.00,0.0108
1777.00,0.0108
1776.00,0.0108
1775.00,0.0108
1774.00,0.0108
1773.00,0.0108
1772.00,0.0109
1771.00,0.0109
1770.00,0.0109
1769.00,0.0109
1768.00,0.0109
1767.00,0.0109
1766.00,0.0109
1765.00,0.0109
1764.00,0.0110
1763.00,0.0110
1762.00,0.0111
1761.00,0.0111
1760.00,0.0111
1759.00,0.0112
1758.00,0.0112
1757.00,0.0112
1756.00,0.0112
1755.00,0.0112
1754.00,0.0112
1753.00,0.0112
1752.00,0.0113
1751.00,0.0113
1750.00,0.0114
1749.00,0.0114
1748.00,0.0114
1747.00,0.0114
1746.00,0.0115
1745.00,0.0115
1744.00,0.0116
1743.00,0.0117
1742.00,0.0118
1741.00,0.0120
1740.00,0.0121
1739.00,0.0122
1738.00,0.0124
1737.00,0.0125
1736.00,0.0126
1735.00,0.0127
1734.00,0.0128
1733.00,0.0129
1732.00,0.0131
1731.00,0.0131
1730.00,0.0131
1729.00,0.0131
1728.00,0.0130
1727.00,0.0130
1726.00,0.0129
1725.00,0.0129
1724.00,0.0128
1723.00,0.0127
1722.00,0.0126
1721.00,0.0125
1720.00,0.0124
1719.00,0.0123
1718.00,0.0122
1717.00,0.0120
1716.00,0.0119
1715.00,0.0118
1714.00,0.0118
1713.00,0.0117
1712.00,0.0117
1711.00,0.0117
1710.00,0.0116
1709.00,0.0116
1708.00,0.0115
1707.00,0.0115
1706.00,0.0114
1705.00,0.0114
1704.00,0.0114
1703.00,0.0114
1702.00,0.0114
1701.00,0.0114
1700.00,0.0114
1699.00,0.0114
1698.00,0.0114
1697.00,0.0114
1696.00,0.0114
1695.00,0.0114
1694.00,0.0114
1693.00,0.0114
1692.00,0.0114
1691.00,0.0114
1690.00,0.0114
1689.00,0.0115
1688.00,0.0115
1687.00,0.0115
1686.00,0.0115
1685.00,0.0115
1684.00,0.0116
1683.00,0.0116
1682.00,0.0116
1681.00,0.0116
1680.00,0.0116
1679.00,0.0116
1678.00,0.0116
1677.00,0.0116
1676.00,0.0117
1675.00,0.0117
1674.00,0.0117
1673.00,0.0117
1672.00,0.0117
1671.00,0.0116
1670.00,0.0116
1669.00,0.0116
1668.00,0.0117
1667.00,0.0117
1666.00,0.0117
1665.00,0.0117
1664.00,0.0116
1663.00,0.0116
1662.00,0.0116
1661.00,0.0116
1660.00,0.0116
1659.00,0.0115
1658.00,0.0115
1657.00,0.0116
1656.00,0.0116
1655.00,0.0116
1654.00,0.0116
1653.00,0.0115
1652.00,0.0115
1651.00,0.0115
1650.00,0.0116
1649.00,0.0116
1648.00,0.0117
1647.00,0.0118
1646.00,0.0119
1645.00,0.0119
1644.00,0.0120
1643.00,0.0122
1642.00,0.0123
1641.00,0.0124
1640.00,0.0125
1639.00,0.0126
1638.00,0.0126
1637.00,0.0126
1636.00,0.0125
1635.00,0.0123
1634.00,0.0122
1633.00,0.0121
1632.00,0.0120
1631.00,0.0119
1630.00,0.0118
1629.00,0.0118
1628.00,0.0118
1627.00,0.0118
1626.00,0.0117
1625.00,0.0117
1624.00,0.0117
1623.00,0.0117
1622.00,0.0118
1621.00,0.0118
1620.00,0.0118
1619.00,0.0118
1618.00,0.0119
1617.00,0.0119
1616.00,0.0119
1615.00,0.0119
1614.00,0.0119
1613.00,0.0120
1612.00,0.0121
1611.00,0.0123
1610.00,0.0125
1609.00,0.0129
1608.00,0.0134
1607.00,0.0140
1606.00,0.0147
1605.00,0.0154
1604.00,0.0161
1603.00,0.0165
1602.00,0.0167
1601.00,0.0165
1600.00,0.0161
1599.00,0.0155
1598.00,0.0149
1597.00,0.0144
1596.00,0.0139
1595.00,0.0135
1594.00,0.0133
1593.00,0.0130
1592.00,0.0129
1591.00,0.0128
1590.00,0.0127
1589.00,0.0128
1588.00,0.0129
1587.00,0.0132
1586.00,0.0135
1585.00,0.0138
1584.00,0.0140
1583.00,0.0140
1582.00,0.0138
1581.00,0.0135
1580.00,0.0132
1579.00,0.0130
1578.00,0.0127
1577.00,0.0125
1576.00,0.0124
1575.00,0.0123
1574.00,0.0123
1573.00,0.0122
1572.00,0.0122
1571.00,0.0121
1570.00,0.0121
1569.00,0.0120
1568.00,0.0120
1567.00,0.0120
1566.00,0.0120
1565.00,0.0120
1564.00,0.0120
1563.00,0.0120
1562.00,0.0120
1561.00,0.0120
1560.00,0.0120
1559.00,0.0120
1558.00,0.0120
1557.00,0.0120
1556.00,0.0120
1555.00,0.0120
1554.00,0.0120
1553.00,0.0120
1552.00,0.0120
1551.00,0.0120
1550.00,0.0119
1549.00,0.0119
1548.00,0.0119
1547.00,0.0119
1546.00,0.0119
1545.00,0.0119
1544.00,0.0119
1543.00,0.0118
1542.00,0.0118
1541.00,0.0117
1540.00,0.0117
1539.00,0.0116
1538.00,0.0116
1537.00,0.0116
1536.00,0.0116
1535.00,0.0116
1534.00,0.0115
1533.00,0.0114
1532.00,0.0114
1531.00,0.0114
1530.00,0.0113
1529.00,0.0113
1528.00,0.0113
1527.00,0.0113
1526.00,0.0113
1525.00,0.0113
1524.00,0.0113
1523.00,0.0113
1522.00,0.0112
1521.00,0.0113
1520.00,0.0113
1519.00,0.0113
1518.00,0.0113
1517.00,0.0112
1516.00,0.0112
1515.00,0.0112
1514.00,0.0112
1513.00,0.0112
1512.00,0.0112
1511.00,0.0112
1510.00,0.0112
1509.00,0.0112
1508.00,0.0113
1507.00,0.0113
1506.00,0.0114
1505.00,0.0115
1504.00,0.0116
1503.00,0.0118
1502.00,0.0121
1501.00,0.0127
1500.00,0.0137
1499.00,0.0153
1498.00,0.0178
1497.00,0.0209
1496.00,0.0243
1495.00,0.0267
1494.00,0.0277
1493.00,0.0273
1492.00,0.0255
1491.00,0.0231
1490.00,0.0205
1489.00,0.0185
1488.00,0.0170
1487.00,0.0160
1486.00,0.0152
1485.00,0.0146
1484.00,0.0141
1483.00,0.0138
1482.00,0.0135
1481.00,0.0133
1480.00,0.0131
1479.00,0.0130
1478.00,0.0129
1477.00,0.0128
1476.00,0.0128
1475.00,0.0128
1474.00,0.0128
1473.00,0.0128
1472.00,0.0129
1471.00,0.0129
1470.00,0.0130
1469.00,0.0131
1468.00,0.0131
1467.00,0.0132
1466.00,0.0134
1465.00,0.0136
1464.00,0.0139
1463.00,0.0143
1462.00,0.0148
1461.00,0.0154
1460.00,0.0164
1459.00,0.0180
1458.00,0.0207
1457.00,0.0246
1456.00,0.0287
1455.00,0.0318
1454.00,0.0339
1453.00,0.0350
1452.00,0.0351
1451.00,0.0344
1450.00,0.0334
1449.00,0.0322
1448.00,0.0310
1447.00,0.0298
1446.00,0.0287
1445.00,0.0277
1444.00,0.0268
1443.00,0.0259
1442.00,0.0251
1441.00,0.0245
1440.00,0.0239
1439.00,0.0233
1438.00,0.0228
1437.00,0.0221
1436.00,0.0215
1435.00,0.0209
1434.00,0.0205
1433.00,0.0200
1432.00,0.0195
1431.00,0.0189
1430.00,0.0184
1429.00,0.0178
1428.00,0.0173
1427.00,0.0168
1426.00,0.0165
1425.00,0.0162
1424.00,0.0159
1423.00,0.0157
1422.00,0.0156
1421.00,0.0156
1420.00,0.0156
1419.00,0.0156
1418.00,0.0155
1417.00,0.0154
1416.00,0.0152
1415.00,0.0151
1414.00,0.0149
1413.00,0.0148
1412.00,0.0147
1411.00,0.0146
1410.00,0.0145
1409.00,0.0145
1408.00,0.0144
1407.00,0.0144
1406.00,0.0143
1405.00,0.0143
1404.00,0.0143
1403.00,0.0143
1402.00,0.0142
1401.00,0.0142
1400.00,0.0142
1399.00,0.0142
1398.00,0.0142
1397.00,0.0142
1396.00,0.0142
1395.00,0.0142
1394.00,0.0142
1393.00,0.0142
1392.00,0.0143
1391.00,0.0143
1390.00,0.0144
1389.00,0.0144
1388.00,0.0146
1387.00,0.0147
1386.00,0.0148
1385.00,0.0149
1384.00,0.0150
1383.00,0.0151
1382.00,0.0152
1381.00,0.0154
1380.00,0.0155
1379.00,0.0157
1378.00,0.0159
1377.00,0.0161
1376.00,0.0162
1375.00,0.0164
1374.00,0.0165
1373.00,0.0166
1372.00,0.0167
1371.00,0.0167
1370.00,0.0168
1369.00,0.0169
1368.00,0.0169
1367.00,0.0170
1366.00,0.0170
1365.00,0.0170
1364.00,0.0171
1363.00,0.0172
1362.00,0.0172
1361.00,0.0172
1360.00,0.0172
1359.00,0.0173
1358.00,0.0173
1357.00,0.0173
1356.00,0.0174
1355.00,0.0174
1354.00,0.0174
1353.00,0.0175
1352.00,0.0175
1351.00,0.0175
1350.00,0.0174
1349.00,0.0174
1348.00,0.0174
1347.00,0.0175
1346.00,0.0174
1345.00,0.0174
1344.00,0.0174
1343.00,0.0173
1342.00,0.0173
1341.00,0.0172
1340.00,0.0172
1339.00,0.0171
1338.00,0.0171
1337.00,0.0171
1336.00,0.0171
1335.00,0.0170
1334.00,0.0170
1333.00,0.0170
1332.00,0.0170
1331.00,0.0170
1330.00,0.0170
1329.00,0.0170
1328.00,0.0169
1327.00,0.0169
1326.00,0.0169
1325.00,0.0170
1324.00,0.0170
1323.00,0.0170
1322.00,0.0170
1321.00,0.0170
1320.00,0.0170
1319.00,0.0170
1318.00,0.0170
1317.00,0.0171
1316.00,0.0171
1315.00,0.0171
1314.00,0.0171
1313.00,0.0171
1312.00,0.0170
1311.00,0.0170
1310.00,0.0170
1309.00,0.0170
1308.00,0.0169
1307.00,0.0169
1306.00,0.0169
1305.00,0.0169
1304.00,0.0168
1303.00,0.0167
1302.00,0.0166
1301.00,0.0165
1300.00,0.0165
1299.00,0.0164
1298.00,0.0164
1297.00,0.0164
1296.00,0.0164
1295.00,0.0164
1294.00,0.0163
1293.00,0.0163
1292.00,0.0162
1291.00,0.0161
1290.00,0.0161
1289.00,0.0160
1288.00,0.0160
1287.00,0.0159
1286.00,0.0159
1285.00,0.0159
1284.00,0.0158
1283.00,0.0158
1282.00,0.0157
1281.00,0.0157
1280.00,0.0156
1279.00,0.0156
1278.00,0.0156
1277.00,0.0155
1276.00,0.0155
1275.00,0.0155
1274.00,0.0154
1273.00,0.0154
1272.00,0.0154
1271.00,0.0153
1270.00,0.0152
1269.00,0.0151
1268.00,0.0151
1267.00,0.0150
1266.00,0.0150
1265.00,0.0149
1264.00,0.0149
1263.00,0.0149
1262.00,0.0148
1261.00,0.0147
1260.00,0.0146
1259.00,0.0145
1258.00,0.0144
1257.00,0.0143
1256.00,0.0142
1255.00,0.0141
1254.00,0.0140
1253.00,0.0139
1252.00,0.0138
1251.00,0.0137
1250.00,0.0136
1249.00,0.0136
1248.00,0.0135
1247.00,0.0135
1246.00,0.0134
1245.00,0.0134
1244.00,0.0133
1243.00,0.0133
1242.00,0.0133
1241.00,0.0133
1240.00,0.0133
1239.00,0.0134
1238.00,0.0134
1237.00,0.0134
1236.00,0.0134
1235.00,0.0134
1234.00,0.0134
1233.00,0.0135
1232.00,0.0135
1231.00,0.0135
1230.00,0.0136
1229.00,0.0136
1228.00,0.0136
1227.00,0.0136
1226.00,0.0137
1225.00,0.0137
1224.00,0.0138
1223.00,0.0138
1222.00,0.0139
1221.00,0.0139
1220.00,0.0140
1219.00,0.0141
1218.00,0.0142
1217.00,0.0142
1216.00,0.0143
1215.00,0.0144
1214.00,0.0145
1213.00,0.0146
1212.00,0.0147
1211.00,0.0147
1210.00,0.0148
1209.00,0.0148
1208.00,0.0149
1207.00,0.0150
1206.00,0.0151
1205.00,0.0152
1204.00,0.0153
1203.00,0.0154
1202.00,0.0154
1201.00,0.0154
1200.00,0.0155
1199.00,0.0154
1198.00,0.0154
1197.00,0.0154
1196.00,0.0154
1195.00,0.0154
1194.00,0.0154
1193.00,0.0154
1192.00,0.0154
1191.00,0.0154
1190.00,0.0155
1189.00,0.0156
1188.00,0.0157
1187.00,0.0159
1186.00,0.0161
1185.00,0.0162
1184.00,0.0162
1183.00,0.0162
1182.00,0.0162
1181.00,0.0161
1180.00,0.0160
1179.00,0.0159
1178.00,0.0157
1177.00,0.0156
1176.00,0.0155
1175.00,0.0155
1174.00,0.0154
1173.00,0.0154
1172.00,0.0154
1171.00,0.0154
1170.00,0.0154
1169.00,0.0154
1168.00,0.0154
1167.00,0.0154
1166.00,0.0154
1165.00,0.0155
1164.00,0.0156
1163.00,0.0157
1162.00,0.0159
1161.00,0.0160
1160.00,0.0162
1159.00,0.0164
1158.00,0.0167
1157.00,0.0169
1156.00,0.0170
1155.00,0.0170
1154.00,0.0168
1153.00,0.0166
1152.00,0.0163
1151.00,0.0160
1150.00,0.0157
1149.00,0.0155
1148.00,0.0155
1147.00,0.0154
1146.00,0.0153
1145.00,0.0152
1144.00,0.0152
1143.00,0.0151
1142.00,0.0151
1141.00,0.0151
1140.00,0.0151
1139.00,0.0151
1138.00,0.0150
1137.00,0.0150
1136.00,0.0149
1135.00,0.0149
1134.00,0.0149
1133.00,0.0149
1132.00,0.0149
1131.00,0.0149
1130.00,0.0149
1129.00,0.0149
1128.00,0.0149
1127.00,0.0149
1126.00,0.0150
1125.00,0.0150
1124.00,0.0151
1123.00,0.0152
1122.00,0.0152
1121.00,0.0153
1120.00,0.0153
1119.00,0.0154
1118.00,0.0155
1117.00,0.0156
1116.00,0.0157
1115.00,0.0157
1114.00,0.0157
1113.00,0.0157
1112.00,0.0157
1111.00,0.0157
1110.00,0.0157
1109.00,0.0157
1108.00,0.0157
1107.00,0.0158
1106.00,0.0158
1105.00,0.0159
1104.00,0.0160
1103.00,0.0160
1102.00,0.0160
1101.00,0.0160
1100.00,0.0161
1099.00,0.0161
1098.00,0.0161
1097.00,0.0161
1096.00,0.0161
1095.00,0.0161
1094.00,0.0162
1093.00,0.0162
1092.00,0.0163
1091.00,0.0163
1090.00,0.0164
1089.00,0.0165
1088.00,0.0167
1087.00,0.0168
1086.00,0.0169
1085.00,0.0170
1084.00,0.0172
1083.00,0.0173
1082.00,0.0175
1081.00,0.0176
1080.00,0.0178
1079.00,0.0180
1078.00,0.0183
1077.00,0.0186
1076.00,0.0189
1075.00,0.0192
1074.00,0.0193
1073.00,0.0195
1072.00,0.0196
1071.00,0.0197
1070.00,0.0197
1069.00,0.0197
1068.00,0.0197
1067.00,0.0196
1066.00,0.0194
1065.00,0.0192
1064.00,0.0190
1063.00,0.0189
1062.00,0.0187
1061.00,0.0186
1060.00,0.0185
1059.00,0.0183
1058.00,0.0181
1057.00,0.0180
1056.00,0.0180
1055.00,0.0179
1054.00,0.0178
1053.00,0.0178
1052.00,0.0177
1051.00,0.0177
1050.00,0.0176
1049.00,0.0175
1048.00,0.0175
1047.00,0.0175
1046.00,0.0174
1045.00,0.0174
1044.00,0.0173
1043.00,0.0173
1042.00,0.0173
1041.00,0.0174
1040.00,0.0174
1039.00,0.0176
1038.00,0.0178
1037.00,0.0180
1036.00,0.0183
1035.00,0.0188
1034.00,0.0194
1033.00,0.0201
1032.00,0.0208
1031.00,0.0215
1030.00,0.0220
1029.00,0.0223
1028.00,0.0223
1027.00,0.0221
1026.00,0.0218
1025.00,0.0214
1024.00,0.0210
1023.00,0.0206
1022.00,0.0203
1021.00,0.0201
1020.00,0.0199
1019.00,0.0197
1018.00,0.0196
1017.00,0.0194
1016.00,0.0193
1015.00,0.0192
1014.00,0.0192
1013.00,0.0192
1012.00,0.0191
1011.00,0.0191
1010.00,0.0191
1009.00,0.0191
1008.00,0.0192
1007.00,0.0194
1006.00,0.0195
1005.00,0.0196
1004.00,0.0196
1003.00,0.0197
1002.00,0.0197
1001.00,0.0197
1000.00,0.0197
999.00,0.0198
998.00,0.0200
997.00,0.0202
996.00,0.0204
995.00,0.0205
994.00,0.0207
993.00,0.0208
992.00,0.0207
991.00,0.0206
990.00,0.0205
989.00,0.0204
988.00,0.0203
987.00,0.0203
986.00,0.0203
985.00,0.0203
984.00,0.0204
983.00,0.0205
982.00,0.0207
981.00,0.0209
980.00,0.0212
979.00,0.0216
978.00,0.0221
977.00,0.0228
976.00,0.0237
975.00,0.0247
974.00,0.0258
973.00,0.0271
972.00,0.0285
971.00,0.0299
970.00,0.0313
969.00,0.0325
968.00,0.0337
967.00,0.0346
966.00,0.0351
965.00,0.0351
964.00,0.0346
963.00,0.0337
962.00,0.0326
961.00,0.0313
960.00,0.0298
959.00,0.0283
958.00,0.0269
957.00,0.0257
956.00,0.0246
955.00,0.0238
954.00,0.0230
953.00,0.0224
952.00,0.0218
951.00,0.0213
950.00,0.0209
949.00,0.0206
948.00,0.0203
947.00,0.0201
946.00,0.0199
945.00,0.0198
944.00,0.0196
943.00,0.0195
942.00,0.0193
941.00,0.0192
940.00,0.0191
939.00,0.0189
938.00,0.0188
937.00,0.0187
936.00,0.0187
935.00,0.0186
934.00,0.0186
933.00,0.0185
932.00,0.0185
931.00,0.0184
930.00,0.0184
929.00,0.0184
928.00,0.0185
927.00,0.0186
926.00,0.0187
925.00,0.0188
924.00,0.0191
923.00,0.0195
922.00,0.0199
921.00,0.0204
920.00,0.0210
919.00,0.0217
918.00,0.0225
917.00,0.0234
916.00,0.0244
915.00,0.0253
914.00,0.0262
913.00,0.0270
912.00,0.0276
911.00,0.0280
910.00,0.0281
909.00,0.0279
908.00,0.0274
907.00,0.0267
906.00,0.0258
905.00,0.0248
904.00,0.0238
903.00,0.0229
902.00,0.0221
901.00,0.0214
900.00,0.0208
899.00,0.0204
898.00,0.0200
897.00,0.0198
896.00,0.0196
895.00,0.0194
894.00,0.0192
893.00,0.0191
892.00,0.0189
891.00,0.0188
890.00,0.0187
889.00,0.0186
888.00,0.0186
887.00,0.0185
886.00,0.0183
885.00,0.0182
884.00,0.0182
883.00,0.0182
882.00,0.0183
881.00,0.0183
880.00,0.0183
879.00,0.0182
878.00,0.0180
877.00,0.0180
876.00,0.0179
875.00,0.0180
874.00,0.0180
873.00,0.0180
872.00,0.0180
871.00,0.0180
870.00,0.0180
869.00,0.0180
868.00,0.0179
867.00,0.0178
866.00,0.0177
865.00,0.0176
864.00,0.0175
863.00,0.0176
862.00,0.0176
861.00,0.0177
860.00,0.0178
859.00,0.0179
858.00,0.0180
857.00,0.0181
856.00,0.0181
855.00,0.0182
854.00,0.0182
853.00,0.0184
852.00,0.0185
851.00,0.0187
850.00,0.0188
849.00,0.0189
848.00,0.0190
847.00,0.0190
846.00,0.0190
845.00,0.0191
844.00,0.0191
843.00,0.0191
842.00,0.0190
841.00,0.0189
840.00,0.0189
839.00,0.0188
838.00,0.0186
837.00,0.0183
836.00,0.0180
835.00,0.0178
834.00,0.0178
833.00,0.0177
832.00,0.0177
831.00,0.0177
830.00,0.0176
829.00,0.0175
828.00,0.0174
827.00,0.0173
826.00,0.0173
825.00,0.0174
824.00,0.0174
823.00,0.0174
822.00,0.0173
821.00,0.0173
820.00,0.0173
819.00,0.0174
818.00,0.0174
817.00,0.0174
816.00,0.0174
815.00,0.0174
814.00,0.0174
813.00,0.0174
812.00,0.0175
811.00,0.0175
810.00,0.0174
809.00,0.0173
808.00,0.0172
807.00,0.0172
806.00,0.0172
805.00,0.0173
804.00,0.0174
803.00,0.0174
802.00,0.0174
801.00,0.0174
800.00,0.0174
799.00,0.0174
798.00,0.0174
797.00,0.0174
796.00,0.0174
795.00,0.0176
794.00,0.0177
793.00,0.0178
792.00,0.0178
791.00,0.0179
790.00,0.0181
789.00,0.0183
788.00,0.0185
787.00,0.0187
786.00,0.0189
785.00,0.0191
784.00,0.0195
783.00,0.0199
782.00,0.0204
781.00,0.0209
780.00,0.0216
779.00,0.0223
778.00,0.0232
777.00,0.0242
776.00,0.0252
775.00,0.0263
774.00,0.0275
773.00,0.0288
772.00,0.0303
771.00,0.0319
770.00,0.0338
769.00,0.0358
768.00,0.0380
767.00,0.0402
766.00,0.0426
765.00,0.0450
764.00,0.0473
763.00,0.0494
762.00,0.0511
761.00,0.0525
760.00,0.0535
759.00,0.0539
758.00,0.0538
757.00,0.0532
756.00,0.0521
755.00,0.0507
754.00,0.0489
753.00,0.0471
752.00,0.0452
751.00,0.0434
750.00,0.0418
749.00,0.0403
748.00,0.0388
747.00,0.0375
746.00,0.0362
745.00,0.0351
744.00,0.0341
743.00,0.0333
742.00,0.0326
741.00,0.0320
740.00,0.0314
739.00,0.0308
738.00,0.0300
737.00,0.0292
736.00,0.0284
735.00,0.0275
734.00,0.0267
733.00,0.0260
732.00,0.0254
731.00,0.0248
730.00,0.0242
729.00,0.0237
728.00,0.0232
727.00,0.0229
726.00,0.0226
725.00,0.0223
724.00,0.0219
723.00,0.0215
722.00,0.0212
721.00,0.0210
720.00,0.0208
719.00,0.0206
718.00,0.0206
717.00,0.0208
716.00,0.0214
715.00,0.0225
714.00,0.0242
713.00,0.0266
712.00,0.0299
711.00,0.0340
710.00,0.0390
709.00,0.0448
708.00,0.0512
707.00,0.0581
706.00,0.0653
705.00,0.0728
704.00,0.0806
703.00,0.0885
702.00,0.0962
701.00,0.1033
700.00,0.1090
699.00,0.1124
698.00,0.1124
697.00,0.1086
696.00,0.1014
695.00,0.0921
694.00,0.0822
693.00,0.0732
692.00,0.0656
691.00,0.0596
690.00,0.0548
689.00,0.0512
688.00,0.0484
687.00,0.0463
686.00,0.0446
685.00,0.0432
684.00,0.0421
683.00,0.0412
682.00,0.0405
681.00,0.0398
680.00,0.0392
679.00,0.0386
678.00,0.0380
677.00,0.0375
676.00,0.0371
675.00,0.0367
674.00,0.0364
673.00,0.0360
672.00,0.0357
671.00,0.0353
670.00,0.0349
669.00,0.0344
668.00,0.0339
667.00,0.0334
666.00,0.0331
665.00,0.0328
664.00,0.0324
663.00,0.0321
662.00,0.0318
661.00,0.0315
660.00,0.0313
659.00,0.0311
658.00,0.0311
657.00,0.0311
656.00,0.0310
655.00,0.0308
654.00,0.0306
653.00,0.0304
652.00,0.0301
651.00,0.0298
650.00,0.0296
