Created as New Dataset,EVA (ethylene vinyl acetate) GF
cm-1,%T
4000.00,97.91
3999.00,97.91
3998.00,97.91
3997.00,97.91
3996.00,97.91
3995.00,97.92
3994.00,97.92
3993.00,97.92
3992.00,97.92
3991.00,97.92
3990.00,97.92
3989.00,97.92
3988.00,97.92
3987.00,97.92
3986.00,97.92
3985.00,97.91
3984.00,97.92
3983.00,97.92
3982.00,97.92
3981.00,97.92
3980.00,97.92
3979.00,97.92
3978.00,97.92
3977.00,97.92
3976.00,97.92
3975.00,97.92
3974.00,97.92
3973.00,97.92
3972.00,97.92
3971.00,97.92
3970.00,97.92
3969.00,97.92
3968.00,97.92
3967.00,97.92
3966.00,97.92
3965.00,97.92
3964.00,97.92
3963.00,97.92
3962.00,97.92
3961.00,97.92
3960.00,97.92
3959.00,97.92
3958.00,97.92
3957.00,97.92
3956.00,97.92
3955.00,97.93
3954.00,97.93
3953.00,97.93
3952.00,97.93
3951.00,97.93
3950.00,97.93
3949.00,97.93
3948.00,97.93
3947.00,97.93
3946.00,97.93
3945.00,97.93
3944.00,97.93
3943.00,97.94
3942.00,97.94
3941.00,97.93
3940.00,97.93
3939.00,97.93
3938.00,97.93
3937.00,97.94
3936.00,97.94
3935.00,97.94
3934.00,97.93
3933.00,97.93
3932.00,97.93
3931.00,97.93
3930.00,97.93
3929.00,97.93
3928.00,97.93
3927.00,97.93
3926.00,97.93
3925.00,97.93
3924.00,97.94
3923.00,97.94
3922.00,97.93
3921.00,97.93
3920.00,97.93
3919.00,97.93
3918.00,97.93
3917.00,97.93
3916.00,97.93
3915.00,97.93
3914.00,97.92
3913.00,97.92
3912.00,97.92
3911.00,97.92
3910.00,97.93
3909.00,97.93
3908.00,97.94
3907.00,97.95
3906.00,97.95
3905.00,97.95
3904.00,97.96
3903.00,97.95
3902.00,97.95
3901.00,97.94
3900.00,97.93
3899.00,97.93
3898.00,97.93
3897.00,97.93
3896.00,97.93
3895.00,97.94
3894.00,97.94
3893.00,97.94
3892.00,97.94
3891.00,97.94
3890.00,97.95
3889.00,97.94
3888.00,97.94
3887.00,97.93
3886.00,97.93
3885.00,97.94
3884.00,97.95
3883.00,97.95
3882.00,97.94
3881.00,97.94
3880.00,97.94
3879.00,97.94
3878.00,97.94
3877.00,97.93
3876.00,97.93
3875.00,97.94
3874.00,97.95
3873.00,97.95
3872.00,97.95
3871.00,97.94
3870.00,97.94
3869.00,97.95
3868.00,97.96
3867.00,97.95
3866.00,97.94
3865.00,97.94
3864.00,97.95
3863.00,97.95
3862.00,97.95
3861.00,97.94
3860.00,97.94
3859.00,97.95
3858.00,97.96
3857.00,97.97
3856.00,97.97
3855.00,97.96
3854.00,97.94
3853.00,97.95
3852.00,97.96
3851.00,97.96
3850.00,97.95
3849.00,97.94
3848.00,97.93
3847.00,97.93
3846.00,97.93
3845.00,97.93
3844.00,97.94
3843.00,97.95
3842.00,97.95
3841.00,97.96
3840.00,97.96
3839.00,97.95
3838.00,97.95
3837.00,97.95
3836.00,97.95
3835.00,97.95
3834.00,97.94
3833.00,97.93
3832.00,97.93
3831.00,97.94
3830.00,97.94
3829.00,97.94
3828.00,97.93
3827.00,97.93
3826.00,97.94
3825.00,97.95
3824.00,97.95
3823.00,97.94
3822.00,97.93
3821.00,97.93
3820.00,97.94
3819.00,97.94
3818.00,97.92
3817.00,97.91
3816.00,97.92
3815.00,97.92
3814.00,97.92
3813.00,97.91
3812.00,97.91
3811.00,97.92
3810.00,97.92
3809.00,97.92
3808.00,97.92
3807.00,97.92
3806.00,97.93
3805.00,97.94
3804.00,97.93
3803.00,97.92
3802.00,97.92
3801.00,97.93
3800.00,97.94
3799.00,97.94
3798.00,97.92
3797.00,97.92
3796.00,97.92
3795.00,97.92
3794.00,97.91
3793.00,97.91
3792.00,97.91
3791.00,97.91
3790.00,97.91
3789.00,97.91
3788.00,97.91
3787.00,97.91
3786.00,97.91
3785.00,97.91
3784.00,97.92
3783.00,97.92
3782.00,97.92
3781.00,97.91
3780.00,97.91
3779.00,97.91
3778.00,97.91
3777.00,97.90
3776.00,97.90
3775.00,97.90
3774.00,97.91
3773.00,97.91
3772.00,97.91
3771.00,97.91
3770.00,97.91
3769.00,97.91
3768.00,97.91
3767.00,97.90
3766.00,97.90
3765.00,97.90
3764.00,97.91
3763.00,97.90
3762.00,97.90
3761.00,97.91
3760.00,97.91
3759.00,97.92
3758.00,97.92
3757.00,97.92
3756.00,97.93
3755.00,97.94
3754.00,97.95
3753.00,97.96
3752.00,97.96
3751.00,97.95
3750.00,97.95
3749.00,97.96
3748.00,97.96
3747.00,97.95
3746.00,97.93
3745.00,97.91
3744.00,97.92
3743.00,97.93
3742.00,97.93
3741.00,97.93
3740.00,97.93
3739.00,97.94
3738.00,97.95
3737.00,97.95
3736.00,97.96
3735.00,97.96
3734.00,97.95
3733.00,97.94
3732.00,97.93
3731.00,97.93
3730.00,97.93
3729.00,97.92
3728.00,97.92
3727.00,97.93
3726.00,97.94
3725.00,97.94
3724.00,97.94
3723.00,97.93
3722.00,97.92
3721.00,97.92
3720.00,97.91
3719.00,97.91
3718.00,97.91
3717.00,97.91
3716.00,97.92
3715.00,97.92
3714.00,97.92
3713.00,97.92
3712.00,97.92
3711.00,97.92
3710.00,97.93
3709.00,97.93
3708.00,97.93
3707.00,97.93
3706.00,97.92
3705.00,97.92
3704.00,97.92
3703.00,97.92
3702.00,97.92
3701.00,97.92
3700.00,97.92
3699.00,97.92
3698.00,97.91
3697.00,97.91
3696.00,97.91
3695.00,97.92
3694.00,97.93
3693.00,97.94
3692.00,97.94
3691.00,97.95
3690.00,97.94
3689.00,97.93
3688.00,97.93
3687.00,97.92
3686.00,97.91
3685.00,97.90
3684.00,97.90
3683.00,97.91
3682.00,97.91
3681.00,97.91
3680.00,97.92
3679.00,97.93
3678.00,97.93
3677.00,97.92
3676.00,97.92
3675.00,97.93
3674.00,97.94
3673.00,97.94
3672.00,97.92
3671.00,97.92
3670.00,97.92
3669.00,97.92
3668.00,97.91
3667.00,97.90
3666.00,97.90
3665.00,97.89
3664.00,97.89
3663.00,97.89
3662.00,97.89
3661.00,97.89
3660.00,97.89
3659.00,97.89
3658.00,97.89
3657.00,97.89
3656.00,97.90
3655.00,97.90
3654.00,97.91
3653.00,97.91
3652.00,97.92
3651.00,97.93
3650.00,97.93
3649.00,97.93
3648.00,97.93
3647.00,97.92
3646.00,97.91
3645.00,97.90
3644.00,97.89
3643.00,97.88
3642.00,97.88
3641.00,97.89
3640.00,97.90
3639.00,97.90
3638.00,97.91
3637.00,97.91
3636.00,97.91
3635.00,97.91
3634.00,97.91
3633.00,97.92
3632.00,97.93
3631.00,97.93
3630.00,97.92
3629.00,97.91
3628.00,97.92
3627.00,97.92
3626.00,97.92
3625.00,97.91
3624.00,97.91
3623.00,97.92
3622.00,97.92
3621.00,97.92
3620.00,97.92
3619.00,97.92
3618.00,97.92
3617.00,97.92
3616.00,97.91
3615.00,97.91
3614.00,97.91
3613.00,97.91
3612.00,97.91
3611.00,97.90
3610.00,97.90
3609.00,97.89
3608.00,97.90
3607.00,97.90
3606.00,97.90
3605.00,97.90
3604.00,97.90
3603.00,97.90
3602.00,97.90
3601.00,97.90
3600.00,97.90
3599.00,97.90
3598.00,97.90
3597.00,97.90
3596.00,97.90
3595.00,97.90
3594.00,97.90
3593.00,97.90
3592.00,97.89
3591.00,97.89
3590.00,97.90
3589.00,97.90
3588.00,97.89
3587.00,97.89
3586.00,97.89
3585.00,97.88
3584.00,97.87
3583.00,97.86
3582.00,97.85
3581.00,97.85
3580.00,97.86
3579.00,97.86
3578.00,97.86
3577.00,97.85
3576.00,97.85
3575.00,97.85
3574.00,97.86
3573.00,97.86
3572.00,97.87
3571.00,97.87
3570.00,97.87
3569.00,97.87
3568.00,97.87
3567.00,97.86
3566.00,97.86
3565.00,97.85
3564.00,97.84
3563.00,97.84
3562.00,97.84
3561.00,97.83
3560.00,97.82
3559.00,97.82
3558.00,97.81
3557.00,97.81
3556.00,97.81
3555.00,97.81
3554.00,97.80
3553.00,97.80
3552.00,97.80
3551.00,97.80
3550.00,97.79
3549.00,97.79
3548.00,97.78
3547.00,97.78
3546.00,97.77
3545.00,97.77
3544.00,97.76
3543.00,97.76
3542.00,97.75
3541.00,97.75
3540.00,97.74
3539.00,97.74
3538.00,97.74
3537.00,97.73
3536.00,97.73
3535.00,97.73
3534.00,97.73
3533.00,97.73
3532.00,97.73
3531.00,97.73
3530.00,97.74
3529.00,97.74
3528.00,97.74
3527.00,97.73
3526.00,97.73
3525.00,97.73
3524.00,97.73
3523.00,97.73
3522.00,97.73
3521.00,97.73
3520.00,97.72
3519.00,97.72
3518.00,97.72
3517.00,97.72
3516.00,97.72
3515.00,97.72
3514.00,97.73
3513.00,97.73
3512.00,97.73
3511.00,97.73
3510.00,97.73
3509.00,97.73
3508.00,97.73
3507.00,97.73
3506.00,97.73
3505.00,97.72
3504.00,97.72
3503.00,97.71
3502.00,97.71
3501.00,97.71
3500.00,97.70
3499.00,97.70
3498.00,97.70
3497.00,97.69
3496.00,97.69
3495.00,97.69
3494.00,97.69
3493.00,97.69
3492.00,97.69
3491.00,97.69
3490.00,97.69
3489.00,97.69
3488.00,97.68
3487.00,97.68
3486.00,97.68
3485.00,97.68
3484.00,97.68
3483.00,97.69
3482.00,97.69
3481.00,97.69
3480.00,97.69
3479.00,97.69
3478.00,97.69
3477.00,97.69
3476.00,97.69
3475.00,97.69
3474.00,97.69
3473.00,97.70
3472.00,97.71
3471.00,97.72
3470.00,97.73
3469.00,97.73
3468.00,97.73
3467.00,97.73
3466.00,97.73
3465.00,97.73
3464.00,97.73
3463.00,97.74
3462.00,97.74
3461.00,97.74
3460.00,97.74
3459.00,97.74
3458.00,97.74
3457.00,97.74
3456.00,97.74
3455.00,97.74
3454.00,97.75
3453.00,97.75
3452.00,97.76
3451.00,97.76
3450.00,97.77
3449.00,97.77
3448.00,97.77
3447.00,97.78
3446.00,97.78
3445.00,97.78
3444.00,97.78
3443.00,97.78
3442.00,97.78
3441.00,97.79
3440.00,97.79
3439.00,97.80
3438.00,97.80
3437.00,97.80
3436.00,97.80
3435.00,97.80
3434.00,97.81
3433.00,97.81
3432.00,97.81
3431.00,97.82
3430.00,97.82
3429.00,97.82
3428.00,97.82
3427.00,97.82
3426.00,97.82
3425.00,97.83
3424.00,97.83
3423.00,97.83
3422.00,97.83
3421.00,97.84
3420.00,97.84
3419.00,97.84
3418.00,97.85
3417.00,97.85
3416.00,97.85
3415.00,97.84
3414.00,97.84
3413.00,97.84
3412.00,97.84
3411.00,97.85
3410.00,97.85
3409.00,97.85
3408.00,97.85
3407.00,97.85
3406.00,97.85
3405.00,97.85
3404.00,97.85
3403.00,97.85
3402.00,97.86
3401.00,97.86
3400.00,97.86
3399.00,97.87
3398.00,97.87
3397.00,97.87
3396.00,97.87
3395.00,97.87
3394.00,97.87
3393.00,97.87
3392.00,97.87
3391.00,97.87
3390.00,97.87
3389.00,97.87
3388.00,97.87
3387.00,97.86
3386.00,97.86
3385.00,97.86
3384.00,97.86
3383.00,97.87
3382.00,97.87
3381.00,97.87
3380.00,97.87
3379.00,97.87
3378.00,97.87
3377.00,97.87
3376.00,97.87
3375.00,97.87
3374.00,97.87
3373.00,97.87
3372.00,97.87
3371.00,97.87
3370.00,97.87
3369.00,97.87
3368.00,97.87
3367.00,97.87
3366.00,97.88
3365.00,97.88
3364.00,97.88
3363.00,97.88
3362.00,97.88
3361.00,97.88
3360.00,97.88
3359.00,97.88
3358.00,97.88
3357.00,97.88
3356.00,97.88
3355.00,97.88
3354.00,97.88
3353.00,97.88
3352.00,97.88
3351.00,97.88
3350.00,97.88
3349.00,97.88
3348.00,97.88
3347.00,97.88
3346.00,97.88
3345.00,97.89
3344.00,97.89
3343.00,97.89
3342.00,97.89
3341.00,97.89
3340.00,97.89
3339.00,97.88
3338.00,97.88
3337.00,97.89
3336.00,97.89
3335.00,97.89
3334.00,97.89
3333.00,97.89
3332.00,97.89
3331.00,97.89
3330.00,97.89
3329.00,97.89
3328.00,97.89
3327.00,97.89
3326.00,97.90
3325.00,97.89
3324.00,97.89
3323.00,97.89
3322.00,97.89
3321.00,97.89
3320.00,97.89
3319.00,97.89
3318.00,97.89
3317.00,97.89
3316.00,97.89
3315.00,97.89
3314.00,97.89
3313.00,97.89
3312.00,97.89
3311.00,97.89
3310.00,97.89
3309.00,97.89
3308.00,97.90
3307.00,97.90
3306.00,97.90
3305.00,97.90
3304.00,97.90
3303.00,97.90
3302.00,97.90
3301.00,97.90
3300.00,97.90
3299.00,97.90
3298.00,97.90
3297.00,97.90
3296.00,97.90
3295.00,97.90
3294.00,97.89
3293.00,97.89
3292.00,97.88
3291.00,97.88
3290.00,97.88
3289.00,97.88
3288.00,97.88
3287.00,97.88
3286.00,97.88
3285.00,97.88
3284.00,97.88
3283.00,97.88
3282.00,97.88
3281.00,97.88
3280.00,97.88
3279.00,97.88
3278.00,97.88
3277.00,97.88
3276.00,97.89
3275.00,97.89
3274.00,97.89
3273.00,97.89
3272.00,97.89
3271.00,97.89
3270.00,97.89
3269.00,97.90
3268.00,97.90
3267.00,97.90
3266.00,97.90
3265.00,97.90
3264.00,97.90
3263.00,97.90
3262.00,97.90
3261.00,97.90
3260.00,97.90
3259.00,97.90
3258.00,97.91
3257.00,97.91
3256.00,97.90
3255.00,97.90
3254.00,97.90
3253.00,97.90
3252.00,97.90
3251.00,97.90
3250.00,97.90
3249.00,97.90
3248.00,97.90
3247.00,97.90
3246.00,97.90
3245.00,97.90
3244.00,97.90
3243.00,97.90
3242.00,97.90
3241.00,97.90
3240.00,97.90
3239.00,97.91
3238.00,97.91
3237.00,97.91
3236.00,97.91
3235.00,97.91
3234.00,97.91
3233.00,97.92
3232.00,97.92
3231.00,97.91
3230.00,97.91
3229.00,97.91
3228.00,97.90
3227.00,97.90
3226.00,97.90
3225.00,97.91
3224.00,97.91
3223.00,97.92
3222.00,97.92
3221.00,97.92
3220.00,97.92
3219.00,97.92
3218.00,97.92
3217.00,97.92
3216.00,97.92
3215.00,97.92
3214.00,97.92
3213.00,97.93
3212.00,97.93
3211.00,97.93
3210.00,97.93
3209.00,97.93
3208.00,97.92
3207.00,97.92
3206.00,97.92
3205.00,97.92
3204.00,97.92
3203.00,97.92
3202.00,97.92
3201.00,97.92
3200.00,97.92
3199.00,97.93
3198.00,97.93
3197.00,97.93
3196.00,97.93
3195.00,97.93
3194.00,97.93
3193.00,97.93
3192.00,97.93
3191.00,97.92
3190.00,97.92
3189.00,97.92
3188.00,97.92
3187.00,97.93
3186.00,97.93
3185.00,97.94
3184.00,97.94
3183.00,97.94
3182.00,97.94
3181.00,97.94
3180.00,97.94
3179.00,97.94
3178.00,97.94
3177.00,97.94
3176.00,97.95
3175.00,97.94
3174.00,97.94
3173.00,97.94
3172.00,97.94
3171.00,97.94
3170.00,97.93
3169.00,97.93
3168.00,97.93
3167.00,97.93
3166.00,97.93
3165.00,97.93
3164.00,97.93
3163.00,97.93
3162.00,97.94
3161.00,97.94
3160.00,97.94
3159.00,97.94
3158.00,97.94
3157.00,97.95
3156.00,97.95
3155.00,97.95
3154.00,97.95
3153.00,97.96
3152.00,97.96
3151.00,97.96
3150.00,97.96
3149.00,97.96
3148.00,97.96
3147.00,97.95
3146.00,97.95
3145.00,97.96
3144.00,97.96
3143.00,97.96
3142.00,97.96
3141.00,97.96
3140.00,97.96
3139.00,97.96
3138.00,97.96
3137.00,97.96
3136.00,97.96
3135.00,97.96
3134.00,97.96
3133.00,97.96
3132.00,97.95
3131.00,97.95
3130.00,97.95
3129.00,97.94
3128.00,97.94
3127.00,97.93
3126.00,97.93
3125.00,97.92
3124.00,97.92
3123.00,97.92
3122.00,97.91
3121.00,97.91
3120.00,97.91
3119.00,97.91
3118.00,97.90
3117.00,97.90
3116.00,97.89
3115.00,97.88
3114.00,97.87
3113.00,97.85
3112.00,97.82
3111.00,97.80
3110.00,97.77
3109.00,97.73
3108.00,97.70
3107.00,97.67
3106.00,97.65
3105.00,97.64
3104.00,97.64
3103.00,97.64
3102.00,97.65
3101.00,97.66
3100.00,97.67
3099.00,97.68
3098.00,97.68
3097.00,97.68
3096.00,97.68
3095.00,97.66
3094.00,97.64
3093.00,97.60
3092.00,97.56
3091.00,97.50
3090.00,97.43
3089.00,97.35
3088.00,97.26
3087.00,97.17
3086.00,97.08
3085.00,97.02
3084.00,96.97
3083.00,96.96
3082.00,96.97
3081.00,97.00
3080.00,97.04
3079.00,97.09
3078.00,97.14
3077.00,97.18
3076.00,97.21
3075.00,97.23
3074.00,97.24
3073.00,97.23
3072.00,97.22
3071.00,97.20
3070.00,97.16
3069.00,97.11
3068.00,97.05
3067.00,96.97
3066.00,96.88
3065.00,96.78
3064.00,96.69
3063.00,96.62
3062.00,96.57
3061.00,96.54
3060.00,96.54
3059.00,96.57
3058.00,96.63
3057.00,96.70
3056.00,96.78
3055.00,96.86
3054.00,96.93
3053.00,97.00
3052.00,97.06
3051.00,97.12
3050.00,97.16
3049.00,97.19
3048.00,97.22
3047.00,97.24
3046.00,97.25
3045.00,97.25
3044.00,97.23
3043.00,97.21
3042.00,97.18
3041.00,97.13
3040.00,97.08
3039.00,97.01
3038.00,96.92
3037.00,96.82
3036.00,96.69
3035.00,96.54
3034.00,96.37
3033.00,96.17
3032.00,95.95
3031.00,95.72
3030.00,95.51
3029.00,95.31
3028.00,95.16
3027.00,95.07
3026.00,95.04
3025.00,95.10
3024.00,95.22
3023.00,95.39
3022.00,95.61
3021.00,95.83
3020.00,96.05
3019.00,96.25
3018.00,96.41
3017.00,96.55
3016.00,96.67
3015.00,96.76
3014.00,96.83
3013.00,96.88
3012.00,96.91
3011.00,96.93
3010.00,96.94
3009.00,96.94
3008.00,96.92
3007.00,96.90
3006.00,96.88
3005.00,96.85
3004.00,96.83
3003.00,96.81
3002.00,96.81
3001.00,96.82
3000.00,96.84
2999.00,96.88
2998.00,96.92
2997.00,96.96
2996.00,96.99
2995.00,97.01
2994.00,97.03
2993.00,97.03
2992.00,97.03
2991.00,97.02
2990.00,97.01
2989.00,96.99
2988.00,96.97
2987.00,96.94
2986.00,96.91
2985.00,96.89
2984.00,96.85
2983.00,96.82
2982.00,96.79
2981.00,96.75
2980.00,96.71
2979.00,96.67
2978.00,96.63
2977.00,96.58
2976.00,96.52
2975.00,96.46
2974.00,96.39
2973.00,96.32
2972.00,96.23
2971.00,96.14
2970.00,96.04
2969.00,95.94
2968.00,95.84
2967.00,95.74
2966.00,95.64
2965.00,95.54
2964.00,95.44
2963.00,95.34
2962.00,95.24
2961.00,95.14
2960.00,95.05
2959.00,94.96
2958.00,94.88
2957.00,94.80
2956.00,94.72
2955.00,94.65
2954.00,94.58
2953.00,94.52
2952.00,94.46
2951.00,94.40
2950.00,94.32
2949.00,94.24
2948.00,94.15
2947.00,94.04
2946.00,93.93
2945.00,93.79
2944.00,93.64
2943.00,93.47
2942.00,93.28
2941.00,93.08
2940.00,92.85
2939.00,92.61
2938.00,92.36
2937.00,92.08
2936.00,91.80
2935.00,91.50
2934.00,91.19
2933.00,90.88
2932.00,90.56
2931.00,90.24
2930.00,89.93
2929.00,89.62
2928.00,89.32
2927.00,89.03
2926.00,88.75
2925.00,88.49
2924.00,88.25
2923.00,88.05
2922.00,87.89
2921.00,87.80
2920.00,87.78
2919.00,87.86
2918.00,88.02
2917.00,88.26
2916.00,88.56
2915.00,88.90
2914.00,89.24
2913.00,89.57
2912.00,89.89
2911.00,90.17
2910.00,90.43
2909.00,90.68
2908.00,90.90
2907.00,91.11
2906.00,91.31
2905.00,91.49
2904.00,91.66
2903.00,91.82
2902.00,91.98
2901.00,92.13
2900.00,92.28
2899.00,92.42
2898.00,92.56
2897.00,92.69
2896.00,92.82
2895.00,92.94
2894.00,93.06
2893.00,93.17
2892.00,93.27
2891.00,93.37
2890.00,93.47
2889.00,93.57
2888.00,93.66
2887.00,93.75
2886.00,93.84
2885.00,93.92
2884.00,94.00
2883.00,94.08
2882.00,94.14
2881.00,94.21
2880.00,94.26
2879.00,94.30
2878.00,94.34
2877.00,94.36
2876.00,94.37
2875.00,94.37
2874.00,94.36
2873.00,94.34
2872.00,94.32
2871.00,94.29
2870.00,94.26
2869.00,94.23
2868.00,94.20
2867.00,94.16
2866.00,94.10
2865.00,94.03
2864.00,93.95
2863.00,93.84
2862.00,93.71
2861.00,93.55
2860.00,93.35
2859.00,93.13
2858.00,92.88
2857.00,92.60
2856.00,92.29
2855.00,91.98
2854.00,91.68
2853.00,91.41
2852.00,91.22
2851.00,91.15
2850.00,91.22
2849.00,91.44
2848.00,91.75
2847.00,92.13
2846.00,92.51
2845.00,92.88
2844.00,93.22
2843.00,93.54
2842.00,93.83
2841.00,94.09
2840.00,94.33
2839.00,94.55
2838.00,94.75
2837.00,94.93
2836.00,95.08
2835.00,95.22
2834.00,95.34
2833.00,95.45
2832.00,95.55
2831.00,95.64
2830.00,95.72
2829.00,95.80
2828.00,95.87
2827.00,95.93
2826.00,96.00
2825.00,96.05
2824.00,96.11
2823.00,96.16
2822.00,96.21
2821.00,96.26
2820.00,96.31
2819.00,96.35
2818.00,96.40
2817.00,96.43
2816.00,96.47
2815.00,96.50
2814.00,96.53
2813.00,96.56
2812.00,96.59
2811.00,96.61
2810.00,96.64
2809.00,96.67
2808.00,96.69
2807.00,96.71
2806.00,96.74
2805.00,96.76
2804.00,96.78
2803.00,96.80
2802.00,96.82
2801.00,96.83
2800.00,96.85
2799.00,96.86
2798.00,96.88
2797.00,96.89
2796.00,96.91
2795.00,96.92
2794.00,96.93
2793.00,96.95
2792.00,96.96
2791.00,96.98
2790.00,96.99
2789.00,97.00
2788.00,97.01
2787.00,97.02
2786.00,97.02
2785.00,97.03
2784.00,97.04
2783.00,97.05
2782.00,97.06
2781.00,97.07
2780.00,97.07
2779.00,97.08
2778.00,97.09
2777.00,97.09
2776.00,97.10
2775.00,97.11
2774.00,97.11
2773.00,97.12
2772.00,97.13
2771.00,97.14
2770.00,97.14
2769.00,97.15
2768.00,97.15
2767.00,97.16
2766.00,97.16
2765.00,97.17
2764.00,97.17
2763.00,97.18
2762.00,97.19
2761.00,97.19
2760.00,97.20
2759.00,97.20
2758.00,97.21
2757.00,97.21
2756.00,97.21
2755.00,97.22
2754.00,97.22
2753.00,97.22
2752.00,97.22
2751.00,97.23
2750.00,97.23
2749.00,97.23
2748.00,97.24
2747.00,97.24
2746.00,97.25
2745.00,97.25
2744.00,97.25
2743.00,97.25
2742.00,97.25
2741.00,97.26
2740.00,97.26
2739.00,97.26
2738.00,97.27
2737.00,97.27
2736.00,97.27
2735.00,97.28
2734.00,97.28
2733.00,97.28
2732.00,97.29
2731.00,97.29
2730.00,97.29
2729.00,97.30
2728.00,97.30
2727.00,97.31
2726.00,97.31
2725.00,97.31
2724.00,97.31
2723.00,97.31
2722.00,97.31
2721.00,97.31
2720.00,97.32
2719.00,97.32
2718.00,97.32
2717.00,97.32
2716.00,97.33
2715.00,97.33
2714.00,97.33
2713.00,97.34
2712.00,97.34
2711.00,97.34
2710.00,97.34
2709.00,97.34
2708.00,97.34
2707.00,97.34
2706.00,97.34
2705.00,97.34
2704.00,97.34
2703.00,97.34
2702.00,97.35
2701.00,97.35
2700.00,97.35
2699.00,97.36
2698.00,97.36
2697.00,97.36
2696.00,97.36
2695.00,97.37
2694.00,97.37
2693.00,97.37
2692.00,97.37
2691.00,97.37
2690.00,97.37
2689.00,97.37
2688.00,97.37
2687.00,97.37
2686.00,97.37
2685.00,97.37
2684.00,97.37
2683.00,97.38
2682.00,97.38
2681.00,97.38
2680.00,97.38
2679.00,97.38
2678.00,97.38
2677.00,97.38
2676.00,97.38
2675.00,97.38
2674.00,97.38
2673.00,97.38
2672.00,97.38
2671.00,97.38
2670.00,97.38
2669.00,97.38
2668.00,97.39
2667.00,97.39
2666.00,97.39
2665.00,97.39
2664.00,97.38
2663.00,97.37
2662.00,97.37
2661.00,97.36
2660.00,97.36
2659.00,97.36
2658.00,97.36
2657.00,97.36
2656.00,97.35
2655.00,97.35
2654.00,97.35
2653.00,97.34
2652.00,97.34
2651.00,97.34
2650.00,97.34
2649.00,97.34
2648.00,97.34
2647.00,97.33
2646.00,97.33
2645.00,97.33
2644.00,97.33
2643.00,97.33
2642.00,97.33
2641.00,97.33
2640.00,97.33
2639.00,97.32
2638.00,97.32
2637.00,97.32
2636.00,97.32
2635.00,97.31
2634.00,97.31
2633.00,97.31
2632.00,97.32
2631.00,97.32
2630.00,97.32
2629.00,97.32
2628.00,97.32
2627.00,97.33
2626.00,97.33
2625.00,97.33
2624.00,97.34
2623.00,97.34
2622.00,97.34
2621.00,97.35
2620.00,97.35
2619.00,97.35
2618.00,97.35
2617.00,97.36
2616.00,97.36
2615.00,97.36
2614.00,97.35
2613.00,97.35
2612.00,97.35
2611.00,97.35
2610.00,97.35
2609.00,97.35
2608.00,97.34
2607.00,97.34
2606.00,97.34
2605.00,97.34
2604.00,97.34
2603.00,97.34
2602.00,97.34
2601.00,97.35
2600.00,97.35
2599.00,97.35
2598.00,97.35
2597.00,97.35
2596.00,97.35
2595.00,97.35
2594.00,97.35
2593.00,97.35
2592.00,97.36
2591.00,97.36
2590.00,97.37
2589.00,97.37
2588.00,97.37
2587.00,97.37
2586.00,97.37
2585.00,97.37
2584.00,97.37
2583.00,97.37
2582.00,97.38
2581.00,97.38
2580.00,97.38
2579.00,97.39
2578.00,97.39
2577.00,97.40
2576.00,97.40
2575.00,97.40
2574.00,97.41
2573.00,97.41
2572.00,97.41
2571.00,97.40
2570.00,97.40
2569.00,97.40
2568.00,97.40
2567.00,97.40
2566.00,97.41
2565.00,97.41
2564.00,97.41
2563.00,97.41
2562.00,97.41
2561.00,97.41
2560.00,97.41
2559.00,97.42
2558.00,97.42
2557.00,97.42
2556.00,97.42
2555.00,97.42
2554.00,97.42
2553.00,97.41
2552.00,97.41
2551.00,97.41
2550.00,97.42
2549.00,97.42
2548.00,97.43
2547.00,97.43
2546.00,97.43
2545.00,97.44
2544.00,97.44
2543.00,97.44
2542.00,97.44
2541.00,97.44
2540.00,97.44
2539.00,97.44
2538.00,97.44
2537.00,97.44
2536.00,97.45
2535.00,97.45
2534.00,97.45
2533.00,97.45
2532.00,97.45
2531.00,97.45
2530.00,97.45
2529.00,97.45
2528.00,97.45
2527.00,97.45
2526.00,97.45
2525.00,97.45
2524.00,97.45
2523.00,97.46
2522.00,97.46
2521.00,97.47
2520.00,97.47
2519.00,97.47
2518.00,97.47
2517.00,97.47
2516.00,97.46
2515.00,97.46
2514.00,97.46
2513.00,97.46
2512.00,97.46
2511.00,97.46
2510.00,97.46
2509.00,97.46
2508.00,97.46
2507.00,97.46
2506.00,97.46
2505.00,97.47
2504.00,97.47
2503.00,97.48
2502.00,97.47
2501.00,97.47
2500.00,97.47
2499.00,97.47
2498.00,97.47
2497.00,97.47
2496.00,97.47
2495.00,97.47
2494.00,97.47
2493.00,97.47
2492.00,97.47
2491.00,97.48
2490.00,97.48
2489.00,97.48
2488.00,97.48
2487.00,97.48
2486.00,97.48
2485.00,97.49
2484.00,97.49
2483.00,97.49
2482.00,97.49
2481.00,97.50
2480.00,97.50
2479.00,97.50
2478.00,97.50
2477.00,97.51
2476.00,97.51
2475.00,97.51
2474.00,97.51
2473.00,97.51
2472.00,97.51
2471.00,97.51
2470.00,97.52
2469.00,97.52
2468.00,97.53
2467.00,97.52
2466.00,97.52
2465.00,97.51
2464.00,97.51
2463.00,97.52
2462.00,97.52
2461.00,97.52
2460.00,97.52
2459.00,97.51
2458.00,97.51
2457.00,97.51
2456.00,97.50
2455.00,97.50
2454.00,97.50
2453.00,97.50
2452.00,97.51
2451.00,97.51
2450.00,97.51
2449.00,97.52
2448.00,97.52
2447.00,97.52
2446.00,97.52
2445.00,97.53
2444.00,97.53
2443.00,97.53
2442.00,97.53
2441.00,97.53
2440.00,97.53
2439.00,97.53
2438.00,97.54
2437.00,97.54
2436.00,97.54
2435.00,97.54
2434.00,97.54
2433.00,97.55
2432.00,97.55
2431.00,97.55
2430.00,97.56
2429.00,97.56
2428.00,97.56
2427.00,97.57
2426.00,97.56
2425.00,97.56
2424.00,97.56
2423.00,97.56
2422.00,97.57
2421.00,97.57
2420.00,97.57
2419.00,97.58
2418.00,97.58
2417.00,97.58
2416.00,97.58
2415.00,97.58
2414.00,97.58
2413.00,97.58
2412.00,97.58
2411.00,97.59
2410.00,97.59
2409.00,97.59
2408.00,97.60
2407.00,97.60
2406.00,97.61
2405.00,97.62
2404.00,97.63
2403.00,97.63
2402.00,97.63
2401.00,97.63
2400.00,97.63
2399.00,97.63
2398.00,97.63
2397.00,97.63
2396.00,97.63
2395.00,97.63
2394.00,97.63
2393.00,97.63
2392.00,97.63
2391.00,97.64
2390.00,97.64
2389.00,97.64
2388.00,97.65
2387.00,97.65
2386.00,97.66
2385.00,97.67
2384.00,97.68
2383.00,97.68
2382.00,97.69
2381.00,97.70
2380.00,97.71
2379.00,97.71
2378.00,97.72
2377.00,97.73
2376.00,97.73
2375.00,97.73
2374.00,97.74
2373.00,97.74
2372.00,97.73
2371.00,97.73
2370.00,97.72
2369.00,97.73
2368.00,97.74
2367.00,97.76
2366.00,97.77
2365.00,97.79
2364.00,97.79
2363.00,97.78
2362.00,97.77
2361.00,97.75
2360.00,97.75
2359.00,97.74
2358.00,97.74
2357.00,97.74
2356.00,97.73
2355.00,97.73
2354.00,97.73
2353.00,97.74
2352.00,97.74
2351.00,97.74
2350.00,97.74
2349.00,97.74
2348.00,97.76
2347.00,97.79
2346.00,97.82
2345.00,97.83
2344.00,97.81
2343.00,97.77
2342.00,97.74
2341.00,97.72
2340.00,97.70
2339.00,97.69
2338.00,97.67
2337.00,97.66
2336.00,97.65
2335.00,97.65
2334.00,97.65
2333.00,97.65
2332.00,97.66
2331.00,97.66
2330.00,97.66
2329.00,97.65
2328.00,97.62
2327.00,97.58
2326.00,97.53
2325.00,97.48
2324.00,97.45
2323.00,97.45
2322.00,97.45
2321.00,97.47
2320.00,97.48
2319.00,97.49
2318.00,97.48
2317.00,97.48
2316.00,97.48
2315.00,97.49
2314.00,97.50
2313.00,97.51
2312.00,97.52
2311.00,97.52
2310.00,97.52
2309.00,97.52
2308.00,97.53
2307.00,97.53
2306.00,97.53
2305.00,97.53
2304.00,97.53
2303.00,97.53
2302.00,97.53
2301.00,97.53
2300.00,97.52
2299.00,97.52
2298.00,97.51
2297.00,97.50
2296.00,97.50
2295.00,97.49
2294.00,97.49
2293.00,97.48
2292.00,97.46
2291.00,97.45
2290.00,97.44
2289.00,97.43
2288.00,97.42
2287.00,97.41
2286.00,97.40
2285.00,97.39
2284.00,97.39
2283.00,97.40
2282.00,97.41
2281.00,97.42
2280.00,97.43
2279.00,97.43
2278.00,97.43
2277.00,97.44
2276.00,97.44
2275.00,97.44
2274.00,97.44
2273.00,97.45
2272.00,97.45
2271.00,97.46
2270.00,97.46
2269.00,97.46
2268.00,97.45
2267.00,97.45
2266.00,97.46
2265.00,97.46
2264.00,97.46
2263.00,97.46
2262.00,97.46
2261.00,97.45
2260.00,97.45
2259.00,97.45
2258.00,97.44
2257.00,97.44
2256.00,97.44
2255.00,97.45
2254.00,97.46
2253.00,97.46
2252.00,97.47
2251.00,97.47
2250.00,97.46
2249.00,97.46
2248.00,97.45
2247.00,97.44
2246.00,97.43
2245.00,97.43
2244.00,97.43
2243.00,97.44
2242.00,97.44
2241.00,97.44
2240.00,97.44
2239.00,97.44
2238.00,97.45
2237.00,97.44
2236.00,97.44
2235.00,97.44
2234.00,97.44
2233.00,97.45
2232.00,97.45
2231.00,97.44
2230.00,97.43
2229.00,97.43
2228.00,97.43
2227.00,97.43
2226.00,97.43
2225.00,97.44
2224.00,97.44
2223.00,97.44
2222.00,97.43
2221.00,97.42
2220.00,97.42
2219.00,97.42
2218.00,97.42
2217.00,97.42
2216.00,97.42
2215.00,97.43
2214.00,97.44
2213.00,97.44
2212.00,97.44
2211.00,97.43
2210.00,97.42
2209.00,97.41
2208.00,97.40
2207.00,97.40
2206.00,97.40
2205.00,97.40
2204.00,97.40
2203.00,97.41
2202.00,97.41
2201.00,97.41
2200.00,97.41
2199.00,97.41
2198.00,97.41
2197.00,97.40
2196.00,97.39
2195.00,97.37
2194.00,97.36
2193.00,97.34
2192.00,97.33
2191.00,97.33
2190.00,97.33
2189.00,97.32
2188.00,97.33
2187.00,97.32
2186.00,97.32
2185.00,97.31
2184.00,97.32
2183.00,97.34
2182.00,97.37
2181.00,97.39
2180.00,97.40
2179.00,97.39
2178.00,97.37
2177.00,97.37
2176.00,97.38
2175.00,97.41
2174.00,97.42
2173.00,97.41
2172.00,97.38
2171.00,97.35
2170.00,97.31
2169.00,97.28
2168.00,97.27
2167.00,97.26
2166.00,97.26
2165.00,97.24
2164.00,97.22
2163.00,97.19
2162.00,97.17
2161.00,97.19
2160.00,97.28
2159.00,97.42
2158.00,97.57
2157.00,97.68
2156.00,97.72
2155.00,97.72
2154.00,97.70
2153.00,97.67
2152.00,97.65
2151.00,97.64
2150.00,97.62
2149.00,97.61
2148.00,97.61
2147.00,97.62
2146.00,97.63
2145.00,97.63
2144.00,97.63
2143.00,97.62
2142.00,97.62
2141.00,97.63
2140.00,97.64
2139.00,97.65
2138.00,97.66
2137.00,97.68
2136.00,97.70
2135.00,97.72
2134.00,97.75
2133.00,97.77
2132.00,97.77
2131.00,97.76
2130.00,97.75
2129.00,97.73
2128.00,97.72
2127.00,97.72
2126.00,97.72
2125.00,97.71
2124.00,97.70
2123.00,97.69
2122.00,97.67
2121.00,97.66
2120.00,97.64
2119.00,97.63
2118.00,97.62
2117.00,97.61
2116.00,97.59
2115.00,97.58
2114.00,97.57
2113.00,97.57
2112.00,97.57
2111.00,97.57
2110.00,97.57
2109.00,97.56
2108.00,97.56
2107.00,97.56
2106.00,97.56
2105.00,97.56
2104.00,97.56
2103.00,97.56
2102.00,97.56
2101.00,97.57
2100.00,97.57
2099.00,97.58
2098.00,97.59
2097.00,97.60
2096.00,97.62
2095.00,97.64
2094.00,97.65
2093.00,97.64
2092.00,97.63
2091.00,97.63
2090.00,97.62
2089.00,97.62
2088.00,97.62
2087.00,97.61
2086.00,97.60
2085.00,97.59
2084.00,97.59
2083.00,97.59
2082.00,97.58
2081.00,97.58
2080.00,97.57
2079.00,97.57
2078.00,97.57
2077.00,97.56
2076.00,97.56
2075.00,97.54
2074.00,97.54
2073.00,97.53
2072.00,97.53
2071.00,97.54
2070.00,97.54
2069.00,97.54
2068.00,97.55
2067.00,97.57
2066.00,97.58
2065.00,97.58
2064.00,97.57
2063.00,97.57
2062.00,97.56
2061.00,97.56
2060.00,97.56
2059.00,97.55
2058.00,97.54
2057.00,97.53
2056.00,97.51
2055.00,97.51
2054.00,97.51
2053.00,97.49
2052.00,97.44
2051.00,97.39
2050.00,97.35
2049.00,97.36
2048.00,97.38
2047.00,97.41
2046.00,97.44
2045.00,97.45
2044.00,97.45
2043.00,97.44
2042.00,97.44
2041.00,97.43
2040.00,97.42
2039.00,97.41
2038.00,97.41
2037.00,97.41
2036.00,97.42
2035.00,97.43
2034.00,97.44
2033.00,97.45
2032.00,97.47
2031.00,97.47
2030.00,97.47
2029.00,97.48
2028.00,97.48
2027.00,97.48
2026.00,97.48
2025.00,97.49
2024.00,97.50
2023.00,97.51
2022.00,97.52
2021.00,97.52
2020.00,97.52
2019.00,97.52
2018.00,97.53
2017.00,97.54
2016.00,97.54
2015.00,97.53
2014.00,97.52
2013.00,97.51
2012.00,97.50
2011.00,97.50
2010.00,97.51
2009.00,97.52
2008.00,97.55
2007.00,97.59
2006.00,97.62
2005.00,97.64
2004.00,97.64
2003.00,97.63
2002.00,97.62
2001.00,97.61
2000.00,97.61
1999.00,97.60
1998.00,97.59
1997.00,97.58
1996.00,97.57
1995.00,97.57
1994.00,97.56
1993.00,97.55
1992.00,97.54
1991.00,97.53
1990.00,97.53
1989.00,97.52
1988.00,97.50
1987.00,97.48
1986.00,97.47
1985.00,97.46
1984.00,97.46
1983.00,97.44
1982.00,97.41
1981.00,97.37
1980.00,97.35
1979.00,97.38
1978.00,97.45
1977.00,97.52
1976.00,97.57
1975.00,97.59
1974.00,97.59
1973.00,97.60
1972.00,97.60
1971.00,97.60
1970.00,97.60
1969.00,97.60
1968.00,97.59
1967.00,97.57
1966.00,97.57
1965.00,97.57
1964.00,97.57
1963.00,97.55
1962.00,97.54
1961.00,97.53
1960.00,97.53
1959.00,97.54
1958.00,97.53
1957.00,97.52
1956.00,97.51
1955.00,97.50
1954.00,97.50
1953.00,97.49
1952.00,97.48
1951.00,97.47
1950.00,97.46
1949.00,97.44
1948.00,97.43
1947.00,97.42
1946.00,97.41
1945.00,97.40
1944.00,97.38
1943.00,97.37
1942.00,97.38
1941.00,97.40
1940.00,97.42
1939.00,97.43
1938.00,97.44
1937.00,97.46
1936.00,97.49
1935.00,97.52
1934.00,97.55
1933.00,97.58
1932.00,97.61
1931.00,97.63
1930.00,97.65
1929.00,97.67
1928.00,97.70
1927.00,97.72
1926.00,97.73
1925.00,97.73
1924.00,97.74
1923.00,97.75
1922.00,97.77
1921.00,97.77
1920.00,97.77
1919.00,97.77
1918.00,97.78
1917.00,97.78
1916.00,97.79
1915.00,97.79
1914.00,97.80
1913.00,97.81
1912.00,97.80
1911.00,97.80
1910.00,97.80
1909.00,97.80
1908.00,97.80
1907.00,97.80
1906.00,97.80
1905.00,97.80
1904.00,97.80
1903.00,97.80
1902.00,97.80
1901.00,97.80
1900.00,97.80
1899.00,97.79
1898.00,97.78
1897.00,97.77
1896.00,97.76
1895.00,97.75
1894.00,97.74
1893.00,97.74
1892.00,97.74
1891.00,97.72
1890.00,97.71
1889.00,97.71
1888.00,97.71
1887.00,97.71
1886.00,97.71
1885.00,97.70
1884.00,97.70
1883.00,97.70
1882.00,97.69
1881.00,97.68
1880.00,97.67
1879.00,97.66
1878.00,97.66
1877.00,97.65
1876.00,97.65
1875.00,97.64
1874.00,97.64
1873.00,97.64
1872.00,97.63
1871.00,97.63
1870.00,97.63
1869.00,97.64
1868.00,97.66
1867.00,97.69
1866.00,97.71
1865.00,97.71
1864.00,97.72
1863.00,97.73
1862.00,97.74
1861.00,97.76
1860.00,97.78
1859.00,97.80
1858.00,97.81
1857.00,97.83
1856.00,97.84
1855.00,97.86
1854.00,97.88
1853.00,97.89
1852.00,97.90
1851.00,97.91
1850.00,97.91
1849.00,97.92
1848.00,97.92
1847.00,97.92
1846.00,97.93
1845.00,97.94
1844.00,97.96
1843.00,97.99
1842.00,98.01
1841.00,98.01
1840.00,97.99
1839.00,97.98
1838.00,97.97
1837.00,97.98
1836.00,97.97
1835.00,97.97
1834.00,97.96
1833.00,97.96
1832.00,97.95
1831.00,97.94
1830.00,97.95
1829.00,97.98
1828.00,97.99
1827.00,97.98
1826.00,97.95
1825.00,97.93
1824.00,97.92
1823.00,97.92
1822.00,97.91
1821.00,97.90
1820.00,97.89
1819.00,97.88
1818.00,97.89
1817.00,97.89
1816.00,97.89
1815.00,97.88
1814.00,97.87
1813.00,97.85
1812.00,97.83
1811.00,97.82
1810.00,97.81
1809.00,97.80
1808.00,97.79
1807.00,97.76
1806.00,97.73
1805.00,97.71
1804.00,97.68
1803.00,97.64
1802.00,97.60
1801.00,97.57
1800.00,97.53
1799.00,97.50
1798.00,97.46
1797.00,97.40
1796.00,97.34
1795.00,97.28
1794.00,97.23
1793.00,97.18
1792.00,97.13
1791.00,97.08
1790.00,97.01
1789.00,96.90
1788.00,96.79
1787.00,96.69
1786.00,96.65
1785.00,96.70
1784.00,96.82
1783.00,96.98
1782.00,97.14
1781.00,97.29
1780.00,97.41
1779.00,97.49
1778.00,97.55
1777.00,97.60
1776.00,97.63
1775.00,97.65
1774.00,97.67
1773.00,97.72
1772.00,97.80
1771.00,97.87
1770.00,97.90
1769.00,97.88
1768.00,97.85
1767.00,97.83
1766.00,97.83
1765.00,97.83
1764.00,97.81
1763.00,97.77
1762.00,97.74
1761.00,97.73
1760.00,97.71
1759.00,97.67
1758.00,97.59
1757.00,97.51
1756.00,97.44
1755.00,97.37
1754.00,97.27
1753.00,97.13
1752.00,96.94
1751.00,96.70
1750.00,96.43
1749.00,96.11
1748.00,95.71
1747.00,95.24
1746.00,94.70
1745.00,94.06
1744.00,93.33
1743.00,92.58
1742.00,91.88
1741.00,91.20
1740.00,90.55
1739.00,90.06
1738.00,89.80
1737.00,89.69
1736.00,89.60
1735.00,89.43
1734.00,89.20
1733.00,89.05
1732.00,88.97
1731.00,88.88
1730.00,88.74
1729.00,88.62
1728.00,88.60
1727.00,88.73
1726.00,89.01
1725.00,89.45
1724.00,90.02
1723.00,90.64
1722.00,91.25
1721.00,91.81
1720.00,92.35
1719.00,92.93
1718.00,93.53
1717.00,94.05
1716.00,94.46
1715.00,94.76
1714.00,95.00
1713.00,95.17
1712.00,95.31
1711.00,95.43
1710.00,95.55
1709.00,95.65
1708.00,95.75
1707.00,95.85
1706.00,95.95
1705.00,96.05
1704.00,96.13
1703.00,96.20
1702.00,96.26
1701.00,96.33
1700.00,96.45
1699.00,96.60
1698.00,96.67
1697.00,96.67
1696.00,96.67
1695.00,96.72
1694.00,96.78
1693.00,96.82
1692.00,96.82
1691.00,96.82
1690.00,96.83
1689.00,96.84
1688.00,96.84
1687.00,96.81
1686.00,96.75
1685.00,96.62
1684.00,96.51
1683.00,96.48
1682.00,96.47
1681.00,96.41
1680.00,96.33
1679.00,96.26
1678.00,96.19
1677.00,96.09
1676.00,95.95
1675.00,95.83
1674.00,95.76
1673.00,95.73
1672.00,95.69
1671.00,95.68
1670.00,95.74
1669.00,95.89
1668.00,96.08
1667.00,96.25
1666.00,96.40
1665.00,96.52
1664.00,96.65
1663.00,96.77
1662.00,96.88
1661.00,96.95
1660.00,96.97
1659.00,96.97
1658.00,96.97
1657.00,96.96
1656.00,96.94
1655.00,96.89
1654.00,96.74
1653.00,96.56
1652.00,96.47
1651.00,96.38
1650.00,96.20
1649.00,95.91
1648.00,95.43
1647.00,94.75
1646.00,94.08
1645.00,93.57
1644.00,93.22
1643.00,93.02
1642.00,92.94
1641.00,93.00
1640.00,93.17
1639.00,93.41
1638.00,93.71
1637.00,94.04
1636.00,94.39
1635.00,94.72
1634.00,94.95
1633.00,95.05
1632.00,95.07
1631.00,95.04
1630.00,94.96
1629.00,94.77
1628.00,94.47
1627.00,94.08
1626.00,93.60
1625.00,92.91
1624.00,91.98
1623.00,90.98
1622.00,90.26
1621.00,89.94
1620.00,89.94
1619.00,90.23
1618.00,90.84
1617.00,91.68
1616.00,92.47
1615.00,93.00
1614.00,93.30
1613.00,93.45
1612.00,93.50
1611.00,93.45
1610.00,93.33
1609.00,93.17
1608.00,92.99
1607.00,92.81
1606.00,92.67
1605.00,92.55
1604.00,92.43
1603.00,92.34
1602.00,92.30
1601.00,92.32
1600.00,92.38
1599.00,92.44
1598.00,92.45
1597.00,92.38
1596.00,92.26
1595.00,92.18
1594.00,92.26
1593.00,92.52
1592.00,92.91
1591.00,93.38
1590.00,93.83
1589.00,94.23
1588.00,94.53
1587.00,94.74
1586.00,94.88
1585.00,94.99
1584.00,95.10
1583.00,95.25
1582.00,95.44
1581.00,95.67
1580.00,95.88
1579.00,96.06
1578.00,96.18
1577.00,96.27
1576.00,96.36
1575.00,96.44
1574.00,96.49
1573.00,96.50
1572.00,96.48
1571.00,96.46
1570.00,96.45
1569.00,96.47
1568.00,96.49
1567.00,96.48
1566.00,96.45
1565.00,96.43
1564.00,96.42
1563.00,96.41
1562.00,96.39
1561.00,96.35
1560.00,96.27
1559.00,96.14
1558.00,96.07
1557.00,96.02
1556.00,95.88
1555.00,95.69
1554.00,95.52
1553.00,95.41
1552.00,95.32
1551.00,95.21
1550.00,95.08
1549.00,94.95
1548.00,94.82
1547.00,94.66
1546.00,94.47
1545.00,94.23
1544.00,93.99
1543.00,93.78
1542.00,93.57
1541.00,93.30
1540.00,92.98
1539.00,92.76
1538.00,92.65
1537.00,92.60
1536.00,92.54
1535.00,92.44
1534.00,92.26
1533.00,92.08
1532.00,92.03
1531.00,92.12
1530.00,92.37
1529.00,92.76
1528.00,93.25
1527.00,93.76
1526.00,94.22
1525.00,94.59
1524.00,94.88
1523.00,95.13
1522.00,95.39
1521.00,95.65
1520.00,95.86
1519.00,96.03
1518.00,96.19
1517.00,96.34
1516.00,96.47
1515.00,96.55
1514.00,96.61
1513.00,96.65
1512.00,96.69
1511.00,96.72
1510.00,96.76
1509.00,96.78
1508.00,96.75
1507.00,96.70
1506.00,96.69
1505.00,96.67
1504.00,96.57
1503.00,96.42
1502.00,96.24
1501.00,96.01
1500.00,95.72
1499.00,95.31
1498.00,94.65
1497.00,93.64
1496.00,92.42
1495.00,91.36
1494.00,90.68
1493.00,90.45
1492.00,90.65
1491.00,91.22
1490.00,91.91
1489.00,92.38
1488.00,92.53
1487.00,92.49
1486.00,92.48
1485.00,92.62
1484.00,92.97
1483.00,93.47
1482.00,94.01
1481.00,94.47
1480.00,94.81
1479.00,95.01
1478.00,95.11
1477.00,95.10
1476.00,95.00
1475.00,94.86
1474.00,94.67
1473.00,94.48
1472.00,94.34
1471.00,94.28
1470.00,94.23
1469.00,94.16
1468.00,94.08
1467.00,94.00
1466.00,93.88
1465.00,93.72
1464.00,93.57
1463.00,93.47
1462.00,93.42
1461.00,93.39
1460.00,93.36
1459.00,93.24
1458.00,92.84
1457.00,92.02
1456.00,91.08
1455.00,90.29
1454.00,89.70
1453.00,89.33
1452.00,89.25
1451.00,89.47
1450.00,89.88
1449.00,90.35
1448.00,90.80
1447.00,91.20
1446.00,91.53
1445.00,91.81
1444.00,92.06
1443.00,92.26
1442.00,92.42
1441.00,92.52
1440.00,92.60
1439.00,92.68
1438.00,92.80
1437.00,93.00
1436.00,93.29
1435.00,93.59
1434.00,93.87
1433.00,94.13
1432.00,94.37
1431.00,94.60
1430.00,94.81
1429.00,94.98
1428.00,95.10
1427.00,95.16
1426.00,95.16
1425.00,95.08
1424.00,94.92
1423.00,94.67
1422.00,94.34
1421.00,93.81
1420.00,92.93
1419.00,91.76
1418.00,90.66
1417.00,89.85
1416.00,89.35
1415.00,89.12
1414.00,89.16
1413.00,89.43
1412.00,89.88
1411.00,90.44
1410.00,91.02
1409.00,91.52
1408.00,91.89
1407.00,92.15
1406.00,92.32
1405.00,92.44
1404.00,92.57
1403.00,92.72
1402.00,92.87
1401.00,93.02
1400.00,93.19
1399.00,93.37
1398.00,93.55
1397.00,93.72
1396.00,93.88
1395.00,94.02
1394.00,94.13
1393.00,94.18
1392.00,94.16
1391.00,94.06
1390.00,93.90
1389.00,93.69
1388.00,93.43
1387.00,93.20
1386.00,93.01
1385.00,92.87
1384.00,92.73
1383.00,92.57
1382.00,92.39
1381.00,92.23
1380.00,92.09
1379.00,92.00
1378.00,91.94
1377.00,91.92
1376.00,91.91
1375.00,91.89
1374.00,91.81
1373.00,91.65
1372.00,91.42
1371.00,91.16
1370.00,90.92
1369.00,90.79
1368.00,90.83
1367.00,91.02
1366.00,91.31
1365.00,91.61
1364.00,91.90
1363.00,92.16
1362.00,92.36
1361.00,92.49
1360.00,92.57
1359.00,92.57
1358.00,92.53
1357.00,92.46
1356.00,92.40
1355.00,92.37
1354.00,92.39
1353.00,92.46
1352.00,92.57
1351.00,92.73
1350.00,92.92
1349.00,93.14
1348.00,93.38
1347.00,93.63
1346.00,93.87
1345.00,94.07
1344.00,94.22
1343.00,94.30
1342.00,94.29
1341.00,94.18
1340.00,93.99
1339.00,93.75
1338.00,93.51
1337.00,93.33
1336.00,93.23
1335.00,93.25
1334.00,93.39
1333.00,93.61
1332.00,93.87
1331.00,94.11
1330.00,94.32
1329.00,94.49
1328.00,94.63
1327.00,94.75
1326.00,94.86
1325.00,94.96
1324.00,95.04
1323.00,95.11
1322.00,95.15
1321.00,95.16
1320.00,95.14
1319.00,95.09
1318.00,95.00
1317.00,94.88
1316.00,94.71
1315.00,94.47
1314.00,94.12
1313.00,93.65
1312.00,93.08
1311.00,92.44
1310.00,91.81
1309.00,91.23
1308.00,90.78
1307.00,90.51
1306.00,90.44
1305.00,90.52
1304.00,90.71
1303.00,90.95
1302.00,91.21
1301.00,91.47
1300.00,91.74
1299.00,92.06
1298.00,92.40
1297.00,92.76
1296.00,93.10
1295.00,93.40
1294.00,93.65
1293.00,93.84
1292.00,94.01
1291.00,94.15
1290.00,94.27
1289.00,94.37
1288.00,94.46
1287.00,94.51
1286.00,94.53
1285.00,94.53
1284.00,94.51
1283.00,94.49
1282.00,94.48
1281.00,94.49
1280.00,94.52
1279.00,94.56
1278.00,94.62
1277.00,94.69
1276.00,94.76
1275.00,94.80
1274.00,94.81
1273.00,94.76
1272.00,94.65
1271.00,94.46
1270.00,94.20
1269.00,93.87
1268.00,93.50
1267.00,93.14
1266.00,92.86
1265.00,92.68
1264.00,92.63
1263.00,92.70
1262.00,92.84
1261.00,93.02
1260.00,93.22
1259.00,93.41
1258.00,93.57
1257.00,93.68
1256.00,93.76
1255.00,93.78
1254.00,93.77
1253.00,93.71
1252.00,93.63
1251.00,93.52
1250.00,93.38
1249.00,93.23
1248.00,93.05
1247.00,92.84
1246.00,92.63
1245.00,92.39
1244.00,92.15
1243.00,91.89
1242.00,91.61
1241.00,91.31
1240.00,90.99
1239.00,90.67
1238.00,90.40
1237.00,90.19
1236.00,90.06
1235.00,89.99
1234.00,89.96
1233.00,89.91
1232.00,89.83
1231.00,89.72
1230.00,89.64
1229.00,89.61
1228.00,89.64
1227.00,89.70
1226.00,89.81
1225.00,89.97
1224.00,90.20
1223.00,90.50
1222.00,90.85
1221.00,91.21
1220.00,91.55
1219.00,91.86
1218.00,92.14
1217.00,92.38
1216.00,92.60
1215.00,92.78
1214.00,92.91
1213.00,92.97
1212.00,92.96
1211.00,92.87
1210.00,92.69
1209.00,92.42
1208.00,92.10
1207.00,91.78
1206.00,91.53
1205.00,91.39
1204.00,91.34
1203.00,91.34
1202.00,91.37
1201.00,91.39
1200.00,91.41
1199.00,91.47
1198.00,91.58
1197.00,91.73
1196.00,91.90
1195.00,92.09
1194.00,92.28
1193.00,92.42
1192.00,92.52
1191.00,92.56
1190.00,92.55
1189.00,92.50
1188.00,92.42
1187.00,92.33
1186.00,92.24
1185.00,92.17
1184.00,92.11
1183.00,92.07
1182.00,92.03
1181.00,92.00
1180.00,91.95
1179.00,91.90
1178.00,91.79
1177.00,91.61
1176.00,91.37
1175.00,91.14
1174.00,90.97
1173.00,90.90
1172.00,90.93
1171.00,91.03
1170.00,91.16
1169.00,91.32
1168.00,91.51
1167.00,91.72
1166.00,91.95
1165.00,92.15
1164.00,92.32
1163.00,92.43
1162.00,92.49
1161.00,92.51
1160.00,92.54
1159.00,92.59
1158.00,92.66
1157.00,92.74
1156.00,92.82
1155.00,92.89
1154.00,92.97
1153.00,93.07
1152.00,93.19
1151.00,93.32
1150.00,93.43
1149.00,93.51
1148.00,93.53
1147.00,93.50
1146.00,93.38
1145.00,93.15
1144.00,92.82
1143.00,92.45
1142.00,92.08
1141.00,91.76
1140.00,91.52
1139.00,91.41
1138.00,91.43
1137.00,91.55
1136.00,91.71
1135.00,91.84
1134.00,91.90
1133.00,91.90
1132.00,91.85
1131.00,91.75
1130.00,91.62
1129.00,91.47
1128.00,91.36
1127.00,91.32
1126.00,91.33
1125.00,91.38
1124.00,91.43
1123.00,91.47
1122.00,91.51
1121.00,91.54
1120.00,91.56
1119.00,91.56
1118.00,91.54
1117.00,91.49
1116.00,91.43
1115.00,91.37
1114.00,91.33
1113.00,91.30
1112.00,91.30
1111.00,91.31
1110.00,91.30
1109.00,91.25
1108.00,91.18
1107.00,91.09
1106.00,91.01
1105.00,90.98
1104.00,91.02
1103.00,91.15
1102.00,91.34
1101.00,91.58
1100.00,91.85
1099.00,92.12
1098.00,92.40
1097.00,92.68
1096.00,92.95
1095.00,93.20
1094.00,93.43
1093.00,93.63
1092.00,93.81
1091.00,93.96
1090.00,94.08
1089.00,94.17
1088.00,94.23
1087.00,94.26
1086.00,94.25
1085.00,94.19
1084.00,94.08
1083.00,93.97
1082.00,93.88
1081.00,93.84
1080.00,93.85
1079.00,93.86
1078.00,93.85
1077.00,93.79
1076.00,93.71
1075.00,93.62
1074.00,93.54
1073.00,93.50
1072.00,93.46
1071.00,93.43
1070.00,93.38
1069.00,93.31
1068.00,93.20
1067.00,93.06
1066.00,92.86
1065.00,92.63
1064.00,92.40
1063.00,92.23
1062.00,92.19
1061.00,92.27
1060.00,92.44
1059.00,92.62
1058.00,92.77
1057.00,92.85
1056.00,92.83
1055.00,92.76
1054.00,92.68
1053.00,92.66
1052.00,92.69
1051.00,92.77
1050.00,92.86
1049.00,92.97
1048.00,93.09
1047.00,93.23
1046.00,93.37
1045.00,93.48
1044.00,93.54
1043.00,93.56
1042.00,93.53
1041.00,93.47
1040.00,93.39
1039.00,93.30
1038.00,93.21
1037.00,93.12
1036.00,93.01
1035.00,92.89
1034.00,92.73
1033.00,92.54
1032.00,92.34
1031.00,92.15
1030.00,91.99
1029.00,91.88
1028.00,91.84
1027.00,91.87
1026.00,91.95
1025.00,92.07
1024.00,92.18
1023.00,92.29
1022.00,92.40
1021.00,92.52
1020.00,92.65
1019.00,92.78
1018.00,92.92
1017.00,93.06
1016.00,93.20
1015.00,93.34
1014.00,93.47
1013.00,93.60
1012.00,93.72
1011.00,93.83
1010.00,93.93
1009.00,94.02
1008.00,94.07
1007.00,94.09
1006.00,94.07
1005.00,93.99
1004.00,93.86
1003.00,93.69
1002.00,93.51
1001.00,93.41
1000.00,93.42
999.00,93.56
998.00,93.76
997.00,93.95
996.00,94.07
995.00,94.15
994.00,94.22
993.00,94.33
992.00,94.46
991.00,94.57
990.00,94.64
989.00,94.69
988.00,94.71
987.00,94.71
986.00,94.70
985.00,94.66
984.00,94.62
983.00,94.58
982.00,94.54
981.00,94.51
980.00,94.48
979.00,94.46
978.00,94.46
977.00,94.45
976.00,94.43
975.00,94.40
974.00,94.34
973.00,94.24
972.00,94.11
971.00,93.93
970.00,93.71
969.00,93.46
968.00,93.19
967.00,92.94
966.00,92.77
965.00,92.70
964.00,92.75
963.00,92.92
962.00,93.15
961.00,93.40
960.00,93.64
959.00,93.85
958.00,94.03
957.00,94.17
956.00,94.30
955.00,94.41
954.00,94.52
953.00,94.61
952.00,94.70
951.00,94.79
950.00,94.86
949.00,94.91
948.00,94.95
947.00,94.96
946.00,94.95
945.00,94.95
944.00,94.94
943.00,94.96
942.00,94.99
941.00,95.03
940.00,95.08
939.00,95.11
938.00,95.12
937.00,95.11
936.00,95.07
935.00,95.03
934.00,95.01
933.00,95.03
932.00,95.10
931.00,95.18
930.00,95.27
929.00,95.35
928.00,95.39
927.00,95.41
926.00,95.40
925.00,95.35
924.00,95.25
923.00,95.10
922.00,94.92
921.00,94.71
920.00,94.54
919.00,94.44
918.00,94.41
917.00,94.42
916.00,94.44
915.00,94.44
914.00,94.41
913.00,94.34
912.00,94.25
911.00,94.14
910.00,94.02
909.00,93.90
908.00,93.81
907.00,93.76
906.00,93.75
905.00,93.79
904.00,93.88
903.00,93.99
902.00,94.14
901.00,94.29
900.00,94.44
899.00,94.57
898.00,94.65
897.00,94.68
896.00,94.66
895.00,94.65
894.00,94.65
893.00,94.69
892.00,94.73
891.00,94.79
890.00,94.87
889.00,94.94
888.00,95.00
887.00,95.01
886.00,95.01
885.00,95.01
884.00,95.00
883.00,94.98
882.00,94.97
881.00,94.96
880.00,94.98
879.00,95.02
878.00,95.08
877.00,95.14
876.00,95.18
875.00,95.19
874.00,95.18
873.00,95.16
872.00,95.15
871.00,95.13
870.00,95.11
869.00,95.05
868.00,94.98
867.00,94.92
866.00,94.91
865.00,94.94
864.00,94.99
863.00,95.02
862.00,95.04
861.00,95.04
860.00,95.02
859.00,94.96
858.00,94.82
857.00,94.53
856.00,94.08
855.00,93.57
854.00,93.18
853.00,93.06
852.00,93.24
851.00,93.60
850.00,94.00
849.00,94.32
848.00,94.57
847.00,94.73
846.00,94.83
845.00,94.87
844.00,94.87
843.00,94.86
842.00,94.85
841.00,94.86
840.00,94.88
839.00,94.92
838.00,94.97
837.00,95.03
836.00,95.10
835.00,95.18
834.00,95.25
833.00,95.30
832.00,95.33
831.00,95.34
830.00,95.31
829.00,95.27
828.00,95.21
827.00,95.13
826.00,95.03
825.00,94.92
824.00,94.82
823.00,94.73
822.00,94.68
821.00,94.68
820.00,94.73
819.00,94.80
818.00,94.87
817.00,94.87
816.00,94.78
815.00,94.60
814.00,94.42
813.00,94.33
812.00,94.36
811.00,94.51
810.00,94.69
809.00,94.84
808.00,94.95
807.00,95.01
806.00,95.04
805.00,95.04
804.00,95.03
803.00,95.00
802.00,94.94
801.00,94.85
800.00,94.77
799.00,94.69
798.00,94.59
797.00,94.41
796.00,94.12
795.00,93.71
794.00,93.30
793.00,93.03
792.00,92.95
791.00,93.00
790.00,93.04
789.00,93.05
788.00,93.07
787.00,93.15
786.00,93.26
785.00,93.34
784.00,93.35
783.00,93.32
782.00,93.26
781.00,93.16
780.00,93.02
779.00,92.85
778.00,92.64
777.00,92.39
776.00,92.07
775.00,91.71
774.00,91.29
773.00,90.85
772.00,90.44
771.00,90.09
770.00,89.77
769.00,89.45
768.00,89.12
767.00,88.79
766.00,88.45
765.00,88.09
764.00,87.71
763.00,87.33
762.00,86.98
761.00,86.65
760.00,86.32
759.00,85.95
758.00,85.50
757.00,84.99
756.00,84.55
755.00,84.32
754.00,84.35
753.00,84.50
752.00,84.61
751.00,84.50
750.00,84.16
749.00,83.68
748.00,83.24
747.00,83.00
746.00,82.94
745.00,82.94
744.00,82.92
743.00,82.94
742.00,83.07
741.00,83.33
740.00,83.69
739.00,84.10
738.00,84.50
737.00,84.86
736.00,85.15
735.00,85.39
734.00,85.52
733.00,85.52
732.00,85.34
731.00,85.05
730.00,84.74
729.00,84.50
728.00,84.39
727.00,84.44
726.00,84.59
725.00,84.76
724.00,84.91
723.00,85.01
722.00,85.09
721.00,85.13
720.00,85.14
719.00,85.17
718.00,85.24
717.00,85.32
716.00,85.40
715.00,85.47
714.00,85.52
713.00,85.52
712.00,85.46
711.00,85.33
710.00,85.09
709.00,84.71
708.00,84.13
707.00,83.36
706.00,82.40
705.00,81.23
704.00,79.85
703.00,78.29
702.00,76.61
701.00,74.81
700.00,72.97
699.00,71.22
698.00,69.71
697.00,68.68
696.00,68.33
695.00,68.79
694.00,69.93
693.00,71.43
692.00,72.95
691.00,74.28
690.00,75.35
689.00,76.14
688.00,76.69
687.00,77.07
686.00,77.31
685.00,77.42
684.00,77.46
683.00,77.50
682.00,77.59
681.00,77.68
680.00,77.74
679.00,77.78
678.00,77.83
677.00,77.88
676.00,77.93
675.00,78.00
674.00,78.09
673.00,78.16
672.00,78.21
671.00,78.27
670.00,78.30
669.00,78.16
668.00,77.81
667.00,77.60
666.00,77.67
665.00,77.83
664.00,77.93
663.00,77.94
662.00,77.92
661.00,77.88
660.00,77.84
659.00,77.83
658.00,77.88
657.00,77.92
656.00,77.90
655.00,77.87
654.00,77.79
653.00,77.69
652.00,77.60
651.00,77.51
650.00,77.45
