Created as New Dataset,EVA (25% vinyl acetate) Sigma
cm-1,%T
4000.00,99.80
3999.00,99.80
3998.00,99.79
3997.00,99.79
3996.00,99.79
3995.00,99.79
3994.00,99.79
3993.00,99.79
3992.00,99.79
3991.00,99.79
3990.00,99.79
3989.00,99.80
3988.00,99.80
3987.00,99.80
3986.00,99.79
3985.00,99.79
3984.00,99.79
3983.00,99.79
3982.00,99.79
3981.00,99.79
3980.00,99.79
3979.00,99.79
3978.00,99.79
3977.00,99.79
3976.00,99.79
3975.00,99.78
3974.00,99.78
3973.00,99.78
3972.00,99.78
3971.00,99.78
3970.00,99.79
3969.00,99.79
3968.00,99.80
3967.00,99.80
3966.00,99.79
3965.00,99.79
3964.00,99.79
3963.00,99.79
3962.00,99.79
3961.00,99.79
3960.00,99.79
3959.00,99.79
3958.00,99.80
3957.00,99.80
3956.00,99.80
3955.00,99.80
3954.00,99.80
3953.00,99.80
3952.00,99.80
3951.00,99.80
3950.00,99.80
3949.00,99.80
3948.00,99.79
3947.00,99.79
3946.00,99.80
3945.00,99.80
3944.00,99.80
3943.00,99.80
3942.00,99.80
3941.00,99.80
3940.00,99.80
3939.00,99.80
3938.00,99.80
3937.00,99.80
3936.00,99.80
3935.00,99.80
3934.00,99.80
3933.00,99.80
3932.00,99.80
3931.00,99.80
3930.00,99.80
3929.00,99.80
3928.00,99.80
3927.00,99.80
3926.00,99.80
3925.00,99.80
3924.00,99.79
3923.00,99.79
3922.00,99.79
3921.00,99.78
3920.00,99.78
3919.00,99.78
3918.00,99.79
3917.00,99.79
3916.00,99.79
3915.00,99.79
3914.00,99.80
3913.00,99.80
3912.00,99.80
3911.00,99.80
3910.00,99.80
3909.00,99.79
3908.00,99.79
3907.00,99.78
3906.00,99.78
3905.00,99.78
3904.00,99.78
3903.00,99.78
3902.00,99.78
3901.00,99.78
3900.00,99.78
3899.00,99.78
3898.00,99.79
3897.00,99.79
3896.00,99.79
3895.00,99.79
3894.00,99.79
3893.00,99.79
3892.00,99.79
3891.00,99.79
3890.00,99.79
3889.00,99.78
3888.00,99.78
3887.00,99.78
3886.00,99.79
3885.00,99.79
3884.00,99.79
3883.00,99.78
3882.00,99.78
3881.00,99.79
3880.00,99.79
3879.00,99.79
3878.00,99.79
3877.00,99.79
3876.00,99.79
3875.00,99.79
3874.00,99.79
3873.00,99.79
3872.00,99.79
3871.00,99.78
3870.00,99.78
3869.00,99.78
3868.00,99.78
3867.00,99.78
3866.00,99.78
3865.00,99.79
3864.00,99.80
3863.00,99.80
3862.00,99.80
3861.00,99.81
3860.00,99.81
3859.00,99.81
3858.00,99.80
3857.00,99.80
3856.00,99.79
3855.00,99.79
3854.00,99.79
3853.00,99.79
3852.00,99.79
3851.00,99.79
3850.00,99.79
3849.00,99.80
3848.00,99.80
3847.00,99.81
3846.00,99.81
3845.00,99.81
3844.00,99.81
3843.00,99.80
3842.00,99.80
3841.00,99.80
3840.00,99.80
3839.00,99.80
3838.00,99.81
3837.00,99.81
3836.00,99.81
3835.00,99.81
3834.00,99.81
3833.00,99.81
3832.00,99.81
3831.00,99.80
3830.00,99.80
3829.00,99.80
3828.00,99.80
3827.00,99.80
3826.00,99.80
3825.00,99.80
3824.00,99.79
3823.00,99.79
3822.00,99.79
3821.00,99.79
3820.00,99.79
3819.00,99.79
3818.00,99.79
3817.00,99.79
3816.00,99.79
3815.00,99.80
3814.00,99.80
3813.00,99.80
3812.00,99.80
3811.00,99.80
3810.00,99.80
3809.00,99.80
3808.00,99.80
3807.00,99.81
3806.00,99.81
3805.00,99.81
3804.00,99.81
3803.00,99.81
3802.00,99.81
3801.00,99.81
3800.00,99.81
3799.00,99.80
3798.00,99.81
3797.00,99.81
3796.00,99.81
3795.00,99.81
3794.00,99.81
3793.00,99.81
3792.00,99.81
3791.00,99.81
3790.00,99.81
3789.00,99.81
3788.00,99.81
3787.00,99.81
3786.00,99.81
3785.00,99.81
3784.00,99.81
3783.00,99.81
3782.00,99.81
3781.00,99.81
3780.00,99.81
3779.00,99.81
3778.00,99.81
3777.00,99.81
3776.00,99.81
3775.00,99.82
3774.00,99.82
3773.00,99.81
3772.00,99.81
3771.00,99.81
3770.00,99.81
3769.00,99.81
3768.00,99.81
3767.00,99.80
3766.00,99.80
3765.00,99.80
3764.00,99.80
3763.00,99.80
3762.00,99.80
3761.00,99.81
3760.00,99.81
3759.00,99.81
3758.00,99.81
3757.00,99.81
3756.00,99.81
3755.00,99.81
3754.00,99.80
3753.00,99.80
3752.00,99.79
3751.00,99.79
3750.00,99.79
3749.00,99.79
3748.00,99.79
3747.00,99.79
3746.00,99.79
3745.00,99.79
3744.00,99.80
3743.00,99.80
3742.00,99.80
3741.00,99.80
3740.00,99.79
3739.00,99.79
3738.00,99.79
3737.00,99.79
3736.00,99.79
3735.00,99.79
3734.00,99.79
3733.00,99.79
3732.00,99.79
3731.00,99.79
3730.00,99.79
3729.00,99.79
3728.00,99.80
3727.00,99.80
3726.00,99.81
3725.00,99.81
3724.00,99.81
3723.00,99.81
3722.00,99.80
3721.00,99.80
3720.00,99.80
3719.00,99.80
3718.00,99.80
3717.00,99.80
3716.00,99.80
3715.00,99.80
3714.00,99.79
3713.00,99.79
3712.00,99.79
3711.00,99.79
3710.00,99.79
3709.00,99.79
3708.00,99.80
3707.00,99.80
3706.00,99.79
3705.00,99.79
3704.00,99.79
3703.00,99.79
3702.00,99.79
3701.00,99.79
3700.00,99.79
3699.00,99.79
3698.00,99.79
3697.00,99.79
3696.00,99.79
3695.00,99.79
3694.00,99.79
3693.00,99.79
3692.00,99.79
3691.00,99.78
3690.00,99.78
3689.00,99.77
3688.00,99.77
3687.00,99.77
3686.00,99.77
3685.00,99.77
3684.00,99.78
3683.00,99.78
3682.00,99.78
3681.00,99.77
3680.00,99.76
3679.00,99.75
3678.00,99.74
3677.00,99.73
3676.00,99.73
3675.00,99.73
3674.00,99.74
3673.00,99.74
3672.00,99.75
3671.00,99.76
3670.00,99.76
3669.00,99.77
3668.00,99.77
3667.00,99.77
3666.00,99.76
3665.00,99.76
3664.00,99.76
3663.00,99.76
3662.00,99.76
3661.00,99.76
3660.00,99.75
3659.00,99.75
3658.00,99.75
3657.00,99.74
3656.00,99.74
3655.00,99.74
3654.00,99.74
3653.00,99.73
3652.00,99.73
3651.00,99.73
3650.00,99.72
3649.00,99.71
3648.00,99.70
3647.00,99.70
3646.00,99.71
3645.00,99.72
3644.00,99.72
3643.00,99.73
3642.00,99.73
3641.00,99.73
3640.00,99.73
3639.00,99.73
3638.00,99.73
3637.00,99.74
3636.00,99.73
3635.00,99.73
3634.00,99.73
3633.00,99.72
3632.00,99.71
3631.00,99.70
3630.00,99.70
3629.00,99.71
3628.00,99.71
3627.00,99.72
3626.00,99.72
3625.00,99.72
3624.00,99.72
3623.00,99.72
3622.00,99.72
3621.00,99.71
3620.00,99.71
3619.00,99.71
3618.00,99.71
3617.00,99.71
3616.00,99.71
3615.00,99.70
3614.00,99.70
3613.00,99.70
3612.00,99.70
3611.00,99.70
3610.00,99.69
3609.00,99.69
3608.00,99.69
3607.00,99.69
3606.00,99.69
3605.00,99.69
3604.00,99.70
3603.00,99.70
3602.00,99.71
3601.00,99.71
3600.00,99.71
3599.00,99.71
3598.00,99.71
3597.00,99.71
3596.00,99.72
3595.00,99.72
3594.00,99.72
3593.00,99.72
3592.00,99.72
3591.00,99.72
3590.00,99.72
3589.00,99.72
3588.00,99.73
3587.00,99.73
3586.00,99.74
3585.00,99.74
3584.00,99.74
3583.00,99.74
3582.00,99.74
3581.00,99.74
3580.00,99.74
3579.00,99.75
3578.00,99.75
3577.00,99.75
3576.00,99.74
3575.00,99.74
3574.00,99.74
3573.00,99.74
3572.00,99.73
3571.00,99.73
3570.00,99.73
3569.00,99.73
3568.00,99.73
3567.00,99.73
3566.00,99.73
3565.00,99.72
3564.00,99.72
3563.00,99.72
3562.00,99.72
3561.00,99.72
3560.00,99.72
3559.00,99.71
3558.00,99.71
3557.00,99.72
3556.00,99.72
3555.00,99.72
3554.00,99.72
3553.00,99.72
3552.00,99.72
3551.00,99.72
3550.00,99.71
3549.00,99.71
3548.00,99.71
3547.00,99.71
3546.00,99.71
3545.00,99.71
3544.00,99.71
3543.00,99.71
3542.00,99.71
3541.00,99.71
3540.00,99.71
3539.00,99.71
3538.00,99.71
3537.00,99.70
3536.00,99.70
3535.00,99.70
3534.00,99.70
3533.00,99.71
3532.00,99.71
3531.00,99.71
3530.00,99.71
3529.00,99.71
3528.00,99.70
3527.00,99.70
3526.00,99.70
3525.00,99.70
3524.00,99.70
3523.00,99.70
3522.00,99.70
3521.00,99.70
3520.00,99.70
3519.00,99.70
3518.00,99.70
3517.00,99.70
3516.00,99.70
3515.00,99.70
3514.00,99.70
3513.00,99.70
3512.00,99.70
3511.00,99.69
3510.00,99.69
3509.00,99.69
3508.00,99.68
3507.00,99.68
3506.00,99.68
3505.00,99.68
3504.00,99.68
3503.00,99.68
3502.00,99.68
3501.00,99.67
3500.00,99.67
3499.00,99.67
3498.00,99.67
3497.00,99.66
3496.00,99.66
3495.00,99.66
3494.00,99.66
3493.00,99.65
3492.00,99.65
3491.00,99.64
3490.00,99.64
3489.00,99.64
3488.00,99.64
3487.00,99.63
3486.00,99.62
3485.00,99.61
3484.00,99.61
3483.00,99.61
3482.00,99.61
3481.00,99.61
3480.00,99.61
3479.00,99.60
3478.00,99.59
3477.00,99.57
3476.00,99.56
3475.00,99.55
3474.00,99.55
3473.00,99.55
3472.00,99.55
3471.00,99.55
3470.00,99.55
3469.00,99.55
3468.00,99.54
3467.00,99.52
3466.00,99.50
3465.00,99.49
3464.00,99.48
3463.00,99.48
3462.00,99.48
3461.00,99.48
3460.00,99.48
3459.00,99.48
3458.00,99.48
3457.00,99.48
3456.00,99.47
3455.00,99.48
3454.00,99.48
3453.00,99.49
3452.00,99.49
3451.00,99.50
3450.00,99.51
3449.00,99.52
3448.00,99.53
3447.00,99.53
3446.00,99.53
3445.00,99.54
3444.00,99.55
3443.00,99.56
3442.00,99.56
3441.00,99.57
3440.00,99.58
3439.00,99.59
3438.00,99.60
3437.00,99.61
3436.00,99.61
3435.00,99.62
3434.00,99.62
3433.00,99.62
3432.00,99.62
3431.00,99.62
3430.00,99.63
3429.00,99.63
3428.00,99.63
3427.00,99.64
3426.00,99.64
3425.00,99.64
3424.00,99.64
3423.00,99.64
3422.00,99.64
3421.00,99.63
3420.00,99.63
3419.00,99.63
3418.00,99.64
3417.00,99.64
3416.00,99.65
3415.00,99.65
3414.00,99.65
3413.00,99.65
3412.00,99.65
3411.00,99.64
3410.00,99.64
3409.00,99.64
3408.00,99.64
3407.00,99.64
3406.00,99.65
3405.00,99.65
3404.00,99.65
3403.00,99.65
3402.00,99.65
3401.00,99.66
3400.00,99.66
3399.00,99.65
3398.00,99.65
3397.00,99.65
3396.00,99.65
3395.00,99.65
3394.00,99.65
3393.00,99.65
3392.00,99.65
3391.00,99.64
3390.00,99.64
3389.00,99.64
3388.00,99.64
3387.00,99.64
3386.00,99.64
3385.00,99.64
3384.00,99.64
3383.00,99.64
3382.00,99.64
3381.00,99.64
3380.00,99.64
3379.00,99.64
3378.00,99.64
3377.00,99.64
3376.00,99.64
3375.00,99.64
3374.00,99.64
3373.00,99.64
3372.00,99.64
3371.00,99.64
3370.00,99.64
3369.00,99.64
3368.00,99.65
3367.00,99.65
3366.00,99.65
3365.00,99.65
3364.00,99.65
3363.00,99.65
3362.00,99.65
3361.00,99.65
3360.00,99.65
3359.00,99.65
3358.00,99.65
3357.00,99.65
3356.00,99.65
3355.00,99.65
3354.00,99.64
3353.00,99.64
3352.00,99.64
3351.00,99.64
3350.00,99.64
3349.00,99.64
3348.00,99.63
3347.00,99.63
3346.00,99.63
3345.00,99.64
3344.00,99.64
3343.00,99.64
3342.00,99.64
3341.00,99.64
3340.00,99.64
3339.00,99.64
3338.00,99.65
3337.00,99.65
3336.00,99.65
3335.00,99.65
3334.00,99.64
3333.00,99.64
3332.00,99.64
3331.00,99.64
3330.00,99.64
3329.00,99.64
3328.00,99.63
3327.00,99.63
3326.00,99.63
3325.00,99.64
3324.00,99.64
3323.00,99.64
3322.00,99.63
3321.00,99.63
3320.00,99.63
3319.00,99.62
3318.00,99.62
3317.00,99.62
3316.00,99.62
3315.00,99.62
3314.00,99.61
3313.00,99.61
3312.00,99.60
3311.00,99.60
3310.00,99.60
3309.00,99.60
3308.00,99.60
3307.00,99.60
3306.00,99.60
3305.00,99.60
3304.00,99.60
3303.00,99.60
3302.00,99.60
3301.00,99.59
3300.00,99.60
3299.00,99.60
3298.00,99.60
3297.00,99.60
3296.00,99.60
3295.00,99.60
3294.00,99.60
3293.00,99.60
3292.00,99.60
3291.00,99.61
3290.00,99.61
3289.00,99.60
3288.00,99.60
3287.00,99.61
3286.00,99.61
3285.00,99.61
3284.00,99.62
3283.00,99.62
3282.00,99.62
3281.00,99.62
3280.00,99.62
3279.00,99.62
3278.00,99.63
3277.00,99.63
3276.00,99.63
3275.00,99.63
3274.00,99.63
3273.00,99.63
3272.00,99.63
3271.00,99.63
3270.00,99.64
3269.00,99.64
3268.00,99.64
3267.00,99.64
3266.00,99.64
3265.00,99.65
3264.00,99.65
3263.00,99.64
3262.00,99.64
3261.00,99.64
3260.00,99.64
3259.00,99.64
3258.00,99.64
3257.00,99.64
3256.00,99.65
3255.00,99.65
3254.00,99.65
3253.00,99.65
3252.00,99.65
3251.00,99.65
3250.00,99.65
3249.00,99.65
3248.00,99.65
3247.00,99.65
3246.00,99.65
3245.00,99.65
3244.00,99.65
3243.00,99.65
3242.00,99.65
3241.00,99.65
3240.00,99.66
3239.00,99.66
3238.00,99.66
3237.00,99.66
3236.00,99.66
3235.00,99.66
3234.00,99.66
3233.00,99.66
3232.00,99.66
3231.00,99.66
3230.00,99.65
3229.00,99.65
3228.00,99.66
3227.00,99.66
3226.00,99.66
3225.00,99.66
3224.00,99.66
3223.00,99.66
3222.00,99.66
3221.00,99.66
3220.00,99.65
3219.00,99.65
3218.00,99.65
3217.00,99.66
3216.00,99.66
3215.00,99.66
3214.00,99.66
3213.00,99.66
3212.00,99.66
3211.00,99.66
3210.00,99.66
3209.00,99.66
3208.00,99.66
3207.00,99.66
3206.00,99.66
3205.00,99.66
3204.00,99.66
3203.00,99.66
3202.00,99.66
3201.00,99.66
3200.00,99.66
3199.00,99.66
3198.00,99.66
3197.00,99.66
3196.00,99.66
3195.00,99.65
3194.00,99.65
3193.00,99.65
3192.00,99.65
3191.00,99.66
3190.00,99.66
3189.00,99.66
3188.00,99.66
3187.00,99.66
3186.00,99.66
3185.00,99.66
3184.00,99.65
3183.00,99.65
3182.00,99.65
3181.00,99.65
3180.00,99.65
3179.00,99.65
3178.00,99.65
3177.00,99.66
3176.00,99.66
3175.00,99.66
3174.00,99.66
3173.00,99.65
3172.00,99.65
3171.00,99.65
3170.00,99.66
3169.00,99.66
3168.00,99.66
3167.00,99.66
3166.00,99.65
3165.00,99.65
3164.00,99.65
3163.00,99.65
3162.00,99.65
3161.00,99.65
3160.00,99.65
3159.00,99.66
3158.00,99.66
3157.00,99.66
3156.00,99.66
3155.00,99.66
3154.00,99.65
3153.00,99.65
3152.00,99.65
3151.00,99.66
3150.00,99.66
3149.00,99.66
3148.00,99.66
3147.00,99.66
3146.00,99.65
3145.00,99.65
3144.00,99.65
3143.00,99.65
3142.00,99.65
3141.00,99.65
3140.00,99.65
3139.00,99.65
3138.00,99.65
3137.00,99.65
3136.00,99.65
3135.00,99.64
3134.00,99.64
3133.00,99.64
3132.00,99.64
3131.00,99.64
3130.00,99.64
3129.00,99.64
3128.00,99.63
3127.00,99.63
3126.00,99.62
3125.00,99.62
3124.00,99.62
3123.00,99.62
3122.00,99.62
3121.00,99.61
3120.00,99.61
3119.00,99.61
3118.00,99.61
3117.00,99.60
3116.00,99.60
3115.00,99.60
3114.00,99.60
3113.00,99.60
3112.00,99.60
3111.00,99.59
3110.00,99.59
3109.00,99.58
3108.00,99.58
3107.00,99.57
3106.00,99.57
3105.00,99.57
3104.00,99.57
3103.00,99.56
3102.00,99.56
3101.00,99.55
3100.00,99.55
3099.00,99.54
3098.00,99.53
3097.00,99.53
3096.00,99.52
3095.00,99.52
3094.00,99.51
3093.00,99.51
3092.00,99.50
3091.00,99.49
3090.00,99.48
3089.00,99.48
3088.00,99.48
3087.00,99.48
3086.00,99.48
3085.00,99.47
3084.00,99.46
3083.00,99.46
3082.00,99.46
3081.00,99.45
3080.00,99.45
3079.00,99.44
3078.00,99.44
3077.00,99.43
3076.00,99.43
3075.00,99.42
3074.00,99.42
3073.00,99.42
3072.00,99.42
3071.00,99.41
3070.00,99.41
3069.00,99.40
3068.00,99.40
3067.00,99.39
3066.00,99.39
3065.00,99.38
3064.00,99.37
3063.00,99.37
3062.00,99.36
3061.00,99.36
3060.00,99.35
3059.00,99.34
3058.00,99.33
3057.00,99.33
3056.00,99.33
3055.00,99.32
3054.00,99.32
3053.00,99.31
3052.00,99.30
3051.00,99.29
3050.00,99.28
3049.00,99.27
3048.00,99.27
3047.00,99.26
3046.00,99.25
3045.00,99.24
3044.00,99.23
3043.00,99.23
3042.00,99.22
3041.00,99.21
3040.00,99.20
3039.00,99.19
3038.00,99.18
3037.00,99.17
3036.00,99.16
3035.00,99.14
3034.00,99.13
3033.00,99.12
3032.00,99.11
3031.00,99.09
3030.00,99.08
3029.00,99.06
3028.00,99.05
3027.00,99.04
3026.00,99.03
3025.00,99.02
3024.00,99.00
3023.00,98.99
3022.00,98.97
3021.00,98.96
3020.00,98.95
3019.00,98.94
3018.00,98.93
3017.00,98.92
3016.00,98.91
3015.00,98.90
3014.00,98.89
3013.00,98.88
3012.00,98.88
3011.00,98.87
3010.00,98.87
3009.00,98.86
3008.00,98.85
3007.00,98.84
3006.00,98.82
3005.00,98.81
3004.00,98.79
3003.00,98.78
3002.00,98.76
3001.00,98.74
3000.00,98.72
2999.00,98.69
2998.00,98.67
2997.00,98.64
2996.00,98.62
2995.00,98.58
2994.00,98.55
2993.00,98.51
2992.00,98.48
2991.00,98.44
2990.00,98.39
2989.00,98.35
2988.00,98.29
2987.00,98.24
2986.00,98.18
2985.00,98.12
2984.00,98.05
2983.00,97.99
2982.00,97.91
2981.00,97.83
2980.00,97.73
2979.00,97.63
2978.00,97.52
2977.00,97.40
2976.00,97.28
2975.00,97.14
2974.00,96.99
2973.00,96.83
2972.00,96.66
2971.00,96.49
2970.00,96.29
2969.00,96.09
2968.00,95.87
2967.00,95.65
2966.00,95.41
2965.00,95.16
2964.00,94.91
2963.00,94.65
2962.00,94.38
2961.00,94.10
2960.00,93.81
2959.00,93.51
2958.00,93.21
2957.00,92.91
2956.00,92.59
2955.00,92.26
2954.00,91.91
2953.00,91.55
2952.00,91.17
2951.00,90.77
2950.00,90.33
2949.00,89.87
2948.00,89.37
2947.00,88.84
2946.00,88.27
2945.00,87.66
2944.00,87.01
2943.00,86.30
2942.00,85.55
2941.00,84.73
2940.00,83.86
2939.00,82.92
2938.00,81.91
2937.00,80.83
2936.00,79.70
2935.00,78.50
2934.00,77.25
2933.00,75.94
2932.00,74.57
2931.00,73.14
2930.00,71.66
2929.00,70.11
2928.00,68.51
2927.00,66.84
2926.00,65.11
2925.00,63.32
2924.00,61.47
2923.00,59.60
2922.00,57.74
2921.00,55.97
2920.00,54.42
2919.00,53.22
2918.00,52.53
2917.00,52.50
2916.00,53.18
2915.00,54.50
2914.00,56.34
2913.00,58.47
2912.00,60.71
2911.00,62.88
2910.00,64.90
2909.00,66.72
2908.00,68.35
2907.00,69.78
2906.00,71.06
2905.00,72.20
2904.00,73.24
2903.00,74.20
2902.00,75.09
2901.00,75.94
2900.00,76.75
2899.00,77.53
2898.00,78.29
2897.00,79.03
2896.00,79.76
2895.00,80.48
2894.00,81.20
2893.00,81.90
2892.00,82.60
2891.00,83.28
2890.00,83.95
2889.00,84.59
2888.00,85.22
2887.00,85.82
2886.00,86.38
2885.00,86.92
2884.00,87.42
2883.00,87.88
2882.00,88.31
2881.00,88.71
2880.00,89.06
2879.00,89.37
2878.00,89.64
2877.00,89.84
2876.00,89.99
2875.00,90.07
2874.00,90.08
2873.00,90.03
2872.00,89.92
2871.00,89.75
2870.00,89.52
2869.00,89.21
2868.00,88.80
2867.00,88.28
2866.00,87.65
2865.00,86.88
2864.00,85.97
2863.00,84.91
2862.00,83.68
2861.00,82.29
2860.00,80.72
2859.00,78.94
2858.00,76.96
2857.00,74.75
2856.00,72.31
2855.00,69.67
2854.00,66.93
2853.00,64.27
2852.00,61.95
2851.00,60.31
2850.00,59.65
2849.00,60.14
2848.00,61.77
2847.00,64.30
2846.00,67.40
2845.00,70.73
2844.00,74.03
2843.00,77.14
2842.00,79.95
2841.00,82.44
2840.00,84.59
2839.00,86.43
2838.00,87.99
2837.00,89.31
2836.00,90.43
2835.00,91.37
2834.00,92.17
2833.00,92.85
2832.00,93.43
2831.00,93.92
2830.00,94.35
2829.00,94.71
2828.00,95.02
2827.00,95.30
2826.00,95.54
2825.00,95.76
2824.00,95.95
2823.00,96.13
2822.00,96.29
2821.00,96.44
2820.00,96.58
2819.00,96.70
2818.00,96.82
2817.00,96.92
2816.00,97.02
2815.00,97.12
2814.00,97.20
2813.00,97.29
2812.00,97.36
2811.00,97.44
2810.00,97.51
2809.00,97.58
2808.00,97.64
2807.00,97.70
2806.00,97.76
2805.00,97.82
2804.00,97.87
2803.00,97.93
2802.00,97.97
2801.00,98.02
2800.00,98.06
2799.00,98.11
2798.00,98.15
2797.00,98.19
2796.00,98.23
2795.00,98.26
2794.00,98.30
2793.00,98.34
2792.00,98.37
2791.00,98.41
2790.00,98.44
2789.00,98.47
2788.00,98.50
2787.00,98.53
2786.00,98.56
2785.00,98.59
2784.00,98.61
2783.00,98.64
2782.00,98.66
2781.00,98.68
2780.00,98.70
2779.00,98.72
2778.00,98.74
2777.00,98.76
2776.00,98.77
2775.00,98.79
2774.00,98.80
2773.00,98.81
2772.00,98.83
2771.00,98.84
2770.00,98.85
2769.00,98.86
2768.00,98.87
2767.00,98.87
2766.00,98.88
2765.00,98.89
2764.00,98.89
2763.00,98.90
2762.00,98.91
2761.00,98.91
2760.00,98.92
2759.00,98.92
2758.00,98.93
2757.00,98.93
2756.00,98.94
2755.00,98.94
2754.00,98.94
2753.00,98.94
2752.00,98.94
2751.00,98.94
2750.00,98.94
2749.00,98.95
2748.00,98.95
2747.00,98.95
2746.00,98.95
2745.00,98.96
2744.00,98.96
2743.00,98.96
2742.00,98.96
2741.00,98.96
2740.00,98.96
2739.00,98.96
2738.00,98.97
2737.00,98.97
2736.00,98.97
2735.00,98.98
2734.00,98.98
2733.00,98.99
2732.00,98.99
2731.00,98.99
2730.00,99.00
2729.00,99.01
2728.00,99.02
2727.00,99.03
2726.00,99.04
2725.00,99.04
2724.00,99.05
2723.00,99.05
2722.00,99.06
2721.00,99.06
2720.00,99.07
2719.00,99.08
2718.00,99.08
2717.00,99.09
2716.00,99.10
2715.00,99.10
2714.00,99.11
2713.00,99.11
2712.00,99.11
2711.00,99.12
2710.00,99.12
2709.00,99.12
2708.00,99.13
2707.00,99.13
2706.00,99.14
2705.00,99.14
2704.00,99.15
2703.00,99.15
2702.00,99.15
2701.00,99.15
2700.00,99.15
2699.00,99.15
2698.00,99.14
2697.00,99.14
2696.00,99.14
2695.00,99.13
2694.00,99.13
2693.00,99.12
2692.00,99.12
2691.00,99.11
2690.00,99.11
2689.00,99.11
2688.00,99.10
2687.00,99.10
2686.00,99.10
2685.00,99.09
2684.00,99.09
2683.00,99.09
2682.00,99.08
2681.00,99.08
2680.00,99.08
2679.00,99.07
2678.00,99.07
2677.00,99.07
2676.00,99.07
2675.00,99.07
2674.00,99.07
2673.00,99.07
2672.00,99.07
2671.00,99.07
2670.00,99.07
2669.00,99.08
2668.00,99.08
2667.00,99.08
2666.00,99.08
2665.00,99.08
2664.00,99.08
2663.00,99.08
2662.00,99.08
2661.00,99.08
2660.00,99.08
2659.00,99.08
2658.00,99.09
2657.00,99.09
2656.00,99.09
2655.00,99.09
2654.00,99.10
2653.00,99.10
2652.00,99.10
2651.00,99.10
2650.00,99.10
2649.00,99.10
2648.00,99.10
2647.00,99.10
2646.00,99.10
2645.00,99.10
2644.00,99.10
2643.00,99.10
2642.00,99.10
2641.00,99.10
2640.00,99.11
2639.00,99.11
2638.00,99.11
2637.00,99.11
2636.00,99.12
2635.00,99.12
2634.00,99.13
2633.00,99.13
2632.00,99.14
2631.00,99.14
2630.00,99.15
2629.00,99.15
2628.00,99.16
2627.00,99.17
2626.00,99.18
2625.00,99.19
2624.00,99.20
2623.00,99.20
2622.00,99.21
2621.00,99.21
2620.00,99.22
2619.00,99.23
2618.00,99.23
2617.00,99.23
2616.00,99.24
2615.00,99.24
2614.00,99.25
2613.00,99.25
2612.00,99.26
2611.00,99.28
2610.00,99.28
2609.00,99.29
2608.00,99.29
2607.00,99.30
2606.00,99.31
2605.00,99.31
2604.00,99.32
2603.00,99.32
2602.00,99.33
2601.00,99.33
2600.00,99.34
2599.00,99.34
2598.00,99.35
2597.00,99.36
2596.00,99.36
2595.00,99.36
2594.00,99.36
2593.00,99.37
2592.00,99.37
2591.00,99.38
2590.00,99.39
2589.00,99.39
2588.00,99.40
2587.00,99.40
2586.00,99.41
2585.00,99.42
2584.00,99.42
2583.00,99.43
2582.00,99.43
2581.00,99.43
2580.00,99.44
2579.00,99.44
2578.00,99.45
2577.00,99.46
2576.00,99.46
2575.00,99.47
2574.00,99.47
2573.00,99.47
2572.00,99.48
2571.00,99.48
2570.00,99.48
2569.00,99.48
2568.00,99.48
2567.00,99.49
2566.00,99.49
2565.00,99.50
2564.00,99.50
2563.00,99.50
2562.00,99.50
2561.00,99.50
2560.00,99.50
2559.00,99.51
2558.00,99.52
2557.00,99.52
2556.00,99.53
2555.00,99.53
2554.00,99.53
2553.00,99.53
2552.00,99.53
2551.00,99.53
2550.00,99.54
2549.00,99.54
2548.00,99.55
2547.00,99.55
2546.00,99.55
2545.00,99.55
2544.00,99.56
2543.00,99.56
2542.00,99.56
2541.00,99.56
2540.00,99.56
2539.00,99.56
2538.00,99.57
2537.00,99.57
2536.00,99.56
2535.00,99.56
2534.00,99.56
2533.00,99.56
2532.00,99.56
2531.00,99.56
2530.00,99.57
2529.00,99.57
2528.00,99.57
2527.00,99.57
2526.00,99.58
2525.00,99.58
2524.00,99.58
2523.00,99.58
2522.00,99.59
2521.00,99.59
2520.00,99.59
2519.00,99.59
2518.00,99.59
2517.00,99.59
2516.00,99.60
2515.00,99.60
2514.00,99.60
2513.00,99.60
2512.00,99.60
2511.00,99.60
2510.00,99.60
2509.00,99.60
2508.00,99.59
2507.00,99.59
2506.00,99.59
2505.00,99.59
2504.00,99.59
2503.00,99.59
2502.00,99.59
2501.00,99.59
2500.00,99.59
2499.00,99.59
2498.00,99.59
2497.00,99.59
2496.00,99.59
2495.00,99.58
2494.00,99.58
2493.00,99.57
2492.00,99.57
2491.00,99.57
2490.00,99.57
2489.00,99.57
2488.00,99.57
2487.00,99.57
2486.00,99.57
2485.00,99.57
2484.00,99.57
2483.00,99.57
2482.00,99.58
2481.00,99.58
2480.00,99.58
2479.00,99.57
2478.00,99.57
2477.00,99.56
2476.00,99.56
2475.00,99.57
2474.00,99.57
2473.00,99.58
2472.00,99.58
2471.00,99.58
2470.00,99.59
2469.00,99.59
2468.00,99.60
2467.00,99.60
2466.00,99.59
2465.00,99.59
2464.00,99.59
2463.00,99.59
2462.00,99.60
2461.00,99.60
2460.00,99.61
2459.00,99.61
2458.00,99.61
2457.00,99.60
2456.00,99.61
2455.00,99.61
2454.00,99.61
2453.00,99.62
2452.00,99.61
2451.00,99.61
2450.00,99.62
2449.00,99.62
2448.00,99.62
2447.00,99.62
2446.00,99.63
2445.00,99.63
2444.00,99.63
2443.00,99.64
2442.00,99.64
2441.00,99.64
2440.00,99.64
2439.00,99.64
2438.00,99.64
2437.00,99.64
2436.00,99.64
2435.00,99.65
2434.00,99.65
2433.00,99.65
2432.00,99.66
2431.00,99.66
2430.00,99.65
2429.00,99.65
2428.00,99.65
2427.00,99.64
2426.00,99.64
2425.00,99.64
2424.00,99.65
2423.00,99.65
2422.00,99.65
2421.00,99.65
2420.00,99.65
2419.00,99.65
2418.00,99.65
2417.00,99.64
2416.00,99.64
2415.00,99.64
2414.00,99.64
2413.00,99.65
2412.00,99.65
2411.00,99.65
2410.00,99.65
2409.00,99.65
2408.00,99.65
2407.00,99.65
2406.00,99.65
2405.00,99.66
2404.00,99.66
2403.00,99.66
2402.00,99.66
2401.00,99.66
2400.00,99.66
2399.00,99.66
2398.00,99.66
2397.00,99.66
2396.00,99.66
2395.00,99.66
2394.00,99.66
2393.00,99.66
2392.00,99.66
2391.00,99.66
2390.00,99.66
2389.00,99.66
2388.00,99.66
2387.00,99.66
2386.00,99.66
2385.00,99.66
2384.00,99.66
2383.00,99.65
2382.00,99.65
2381.00,99.65
2380.00,99.65
2379.00,99.65
2378.00,99.66
2377.00,99.66
2376.00,99.66
2375.00,99.66
2374.00,99.66
2373.00,99.66
2372.00,99.66
2371.00,99.66
2370.00,99.66
2369.00,99.66
2368.00,99.65
2367.00,99.63
2366.00,99.62
2365.00,99.62
2364.00,99.61
2363.00,99.61
2362.00,99.61
2361.00,99.61
2360.00,99.61
2359.00,99.60
2358.00,99.60
2357.00,99.59
2356.00,99.58
2355.00,99.57
2354.00,99.57
2353.00,99.57
2352.00,99.57
2351.00,99.57
2350.00,99.57
2349.00,99.56
2348.00,99.56
2347.00,99.56
2346.00,99.56
2345.00,99.55
2344.00,99.54
2343.00,99.53
2342.00,99.53
2341.00,99.52
2340.00,99.51
2339.00,99.51
2338.00,99.52
2337.00,99.52
2336.00,99.51
2335.00,99.51
2334.00,99.50
2333.00,99.50
2332.00,99.50
2331.00,99.50
2330.00,99.51
2329.00,99.51
2328.00,99.50
2327.00,99.48
2326.00,99.45
2325.00,99.42
2324.00,99.40
2323.00,99.40
2322.00,99.41
2321.00,99.43
2320.00,99.44
2319.00,99.45
2318.00,99.45
2317.00,99.46
2316.00,99.47
2315.00,99.48
2314.00,99.48
2313.00,99.48
2312.00,99.47
2311.00,99.47
2310.00,99.47
2309.00,99.47
2308.00,99.47
2307.00,99.48
2306.00,99.48
2305.00,99.49
2304.00,99.49
2303.00,99.50
2302.00,99.50
2301.00,99.51
2300.00,99.51
2299.00,99.50
2298.00,99.49
2297.00,99.48
2296.00,99.48
2295.00,99.48
2294.00,99.49
2293.00,99.49
2292.00,99.49
2291.00,99.49
2290.00,99.49
2289.00,99.49
2288.00,99.49
2287.00,99.49
2286.00,99.48
2285.00,99.48
2284.00,99.48
2283.00,99.48
2282.00,99.49
2281.00,99.49
2280.00,99.49
2279.00,99.49
2278.00,99.49
2277.00,99.50
2276.00,99.50
2275.00,99.51
2274.00,99.51
2273.00,99.51
2272.00,99.51
2271.00,99.52
2270.00,99.52
2269.00,99.52
2268.00,99.53
2267.00,99.53
2266.00,99.54
2265.00,99.55
2264.00,99.56
2263.00,99.55
2262.00,99.55
2261.00,99.54
2260.00,99.53
2259.00,99.53
2258.00,99.53
2257.00,99.53
2256.00,99.53
2255.00,99.53
2254.00,99.54
2253.00,99.54
2252.00,99.55
2251.00,99.55
2250.00,99.55
2249.00,99.55
2248.00,99.54
2247.00,99.54
2246.00,99.55
2245.00,99.56
2244.00,99.56
2243.00,99.56
2242.00,99.57
2241.00,99.58
2240.00,99.58
2239.00,99.58
2238.00,99.59
2237.00,99.60
2236.00,99.60
2235.00,99.59
2234.00,99.58
2233.00,99.58
2232.00,99.58
2231.00,99.59
2230.00,99.60
2229.00,99.60
2228.00,99.61
2227.00,99.60
2226.00,99.60
2225.00,99.59
2224.00,99.60
2223.00,99.60
2222.00,99.60
2221.00,99.60
2220.00,99.60
2219.00,99.61
2218.00,99.61
2217.00,99.61
2216.00,99.60
2215.00,99.59
2214.00,99.58
2213.00,99.58
2212.00,99.58
2211.00,99.59
2210.00,99.59
2209.00,99.59
2208.00,99.58
2207.00,99.57
2206.00,99.58
2205.00,99.59
2204.00,99.60
2203.00,99.60
2202.00,99.61
2201.00,99.60
2200.00,99.59
2199.00,99.57
2198.00,99.56
2197.00,99.55
2196.00,99.54
2195.00,99.54
2194.00,99.53
2193.00,99.52
2192.00,99.51
2191.00,99.49
2190.00,99.48
2189.00,99.48
2188.00,99.48
2187.00,99.48
2186.00,99.48
2185.00,99.48
2184.00,99.48
2183.00,99.49
2182.00,99.50
2181.00,99.52
2180.00,99.52
2179.00,99.51
2178.00,99.49
2177.00,99.49
2176.00,99.50
2175.00,99.52
2174.00,99.53
2173.00,99.52
2172.00,99.51
2171.00,99.48
2170.00,99.46
2169.00,99.44
2168.00,99.42
2167.00,99.40
2166.00,99.38
2165.00,99.37
2164.00,99.36
2163.00,99.35
2162.00,99.35
2161.00,99.36
2160.00,99.41
2159.00,99.50
2158.00,99.60
2157.00,99.68
2156.00,99.71
2155.00,99.71
2154.00,99.71
2153.00,99.70
2152.00,99.70
2151.00,99.69
2150.00,99.68
2149.00,99.66
2148.00,99.65
2147.00,99.65
2146.00,99.65
2145.00,99.67
2144.00,99.68
2143.00,99.68
2142.00,99.67
2141.00,99.66
2140.00,99.65
2139.00,99.65
2138.00,99.65
2137.00,99.66
2136.00,99.68
2135.00,99.70
2134.00,99.72
2133.00,99.75
2132.00,99.75
2131.00,99.74
2130.00,99.73
2129.00,99.71
2128.00,99.70
2127.00,99.69
2126.00,99.67
2125.00,99.67
2124.00,99.66
2123.00,99.65
2122.00,99.65
2121.00,99.64
2120.00,99.64
2119.00,99.63
2118.00,99.63
2117.00,99.63
2116.00,99.62
2115.00,99.61
2114.00,99.60
2113.00,99.60
2112.00,99.59
2111.00,99.59
2110.00,99.59
2109.00,99.60
2108.00,99.60
2107.00,99.60
2106.00,99.61
2105.00,99.61
2104.00,99.62
2103.00,99.62
2102.00,99.62
2101.00,99.61
2100.00,99.61
2099.00,99.60
2098.00,99.59
2097.00,99.59
2096.00,99.59
2095.00,99.60
2094.00,99.61
2093.00,99.62
2092.00,99.63
2091.00,99.62
2090.00,99.62
2089.00,99.61
2088.00,99.60
2087.00,99.59
2086.00,99.59
2085.00,99.59
2084.00,99.59
2083.00,99.58
2082.00,99.58
2081.00,99.58
2080.00,99.58
2079.00,99.58
2078.00,99.57
2077.00,99.57
2076.00,99.57
2075.00,99.57
2074.00,99.57
2073.00,99.57
2072.00,99.57
2071.00,99.56
2070.00,99.56
2069.00,99.56
2068.00,99.56
2067.00,99.56
2066.00,99.57
2065.00,99.57
2064.00,99.56
2063.00,99.55
2062.00,99.55
2061.00,99.56
2060.00,99.56
2059.00,99.55
2058.00,99.54
2057.00,99.54
2056.00,99.53
2055.00,99.53
2054.00,99.52
2053.00,99.51
2052.00,99.49
2051.00,99.46
2050.00,99.46
2049.00,99.47
2048.00,99.49
2047.00,99.51
2046.00,99.51
2045.00,99.52
2044.00,99.52
2043.00,99.52
2042.00,99.52
2041.00,99.53
2040.00,99.54
2039.00,99.52
2038.00,99.51
2037.00,99.50
2036.00,99.50
2035.00,99.50
2034.00,99.51
2033.00,99.53
2032.00,99.53
2031.00,99.52
2030.00,99.51
2029.00,99.50
2028.00,99.49
2027.00,99.48
2026.00,99.47
2025.00,99.47
2024.00,99.48
2023.00,99.49
2022.00,99.50
2021.00,99.50
2020.00,99.50
2019.00,99.50
2018.00,99.51
2017.00,99.52
2016.00,99.52
2015.00,99.51
2014.00,99.48
2013.00,99.47
2012.00,99.46
2011.00,99.47
2010.00,99.48
2009.00,99.50
2008.00,99.52
2007.00,99.53
2006.00,99.55
2005.00,99.56
2004.00,99.56
2003.00,99.55
2002.00,99.55
2001.00,99.55
2000.00,99.56
1999.00,99.56
1998.00,99.56
1997.00,99.56
1996.00,99.55
1995.00,99.54
1994.00,99.53
1993.00,99.53
1992.00,99.53
1991.00,99.53
1990.00,99.53
1989.00,99.54
1988.00,99.53
1987.00,99.52
1986.00,99.51
1985.00,99.50
1984.00,99.50
1983.00,99.48
1982.00,99.46
1981.00,99.44
1980.00,99.44
1979.00,99.45
1978.00,99.49
1977.00,99.53
1976.00,99.56
1975.00,99.58
1974.00,99.59
1973.00,99.59
1972.00,99.59
1971.00,99.59
1970.00,99.59
1969.00,99.59
1968.00,99.58
1967.00,99.57
1966.00,99.58
1965.00,99.60
1964.00,99.61
1963.00,99.62
1962.00,99.62
1961.00,99.62
1960.00,99.62
1959.00,99.62
1958.00,99.62
1957.00,99.63
1956.00,99.64
1955.00,99.63
1954.00,99.62
1953.00,99.61
1952.00,99.61
1951.00,99.61
1950.00,99.61
1949.00,99.62
1948.00,99.62
1947.00,99.62
1946.00,99.62
1945.00,99.62
1944.00,99.61
1943.00,99.60
1942.00,99.60
1941.00,99.60
1940.00,99.60
1939.00,99.60
1938.00,99.60
1937.00,99.60
1936.00,99.60
1935.00,99.59
1934.00,99.59
1933.00,99.60
1932.00,99.60
1931.00,99.60
1930.00,99.60
1929.00,99.61
1928.00,99.61
1927.00,99.60
1926.00,99.59
1925.00,99.58
1924.00,99.58
1923.00,99.58
1922.00,99.57
1921.00,99.57
1920.00,99.57
1919.00,99.56
1918.00,99.57
1917.00,99.57
1916.00,99.57
1915.00,99.56
1914.00,99.56
1913.00,99.56
1912.00,99.57
1911.00,99.57
1910.00,99.56
1909.00,99.55
1908.00,99.54
1907.00,99.53
1906.00,99.52
1905.00,99.52
1904.00,99.52
1903.00,99.52
1902.00,99.51
1901.00,99.51
1900.00,99.51
1899.00,99.50
1898.00,99.49
1897.00,99.49
1896.00,99.49
1895.00,99.49
1894.00,99.50
1893.00,99.50
1892.00,99.51
1891.00,99.50
1890.00,99.49
1889.00,99.49
1888.00,99.48
1887.00,99.48
1886.00,99.48
1885.00,99.48
1884.00,99.48
1883.00,99.47
1882.00,99.47
1881.00,99.46
1880.00,99.46
1879.00,99.46
1878.00,99.46
1877.00,99.46
1876.00,99.46
1875.00,99.45
1874.00,99.44
1873.00,99.43
1872.00,99.42
1871.00,99.41
1870.00,99.41
1869.00,99.41
1868.00,99.41
1867.00,99.40
1866.00,99.40
1865.00,99.40
1864.00,99.40
1863.00,99.40
1862.00,99.39
1861.00,99.39
1860.00,99.38
1859.00,99.37
1858.00,99.38
1857.00,99.39
1856.00,99.40
1855.00,99.41
1854.00,99.41
1853.00,99.41
1852.00,99.41
1851.00,99.40
1850.00,99.40
1849.00,99.41
1848.00,99.41
1847.00,99.41
1846.00,99.41
1845.00,99.41
1844.00,99.40
1843.00,99.39
1842.00,99.39
1841.00,99.39
1840.00,99.38
1839.00,99.38
1838.00,99.37
1837.00,99.37
1836.00,99.36
1835.00,99.35
1834.00,99.34
1833.00,99.34
1832.00,99.34
1831.00,99.33
1830.00,99.32
1829.00,99.32
1828.00,99.31
1827.00,99.29
1826.00,99.28
1825.00,99.28
1824.00,99.27
1823.00,99.26
1822.00,99.25
1821.00,99.25
1820.00,99.25
1819.00,99.24
1818.00,99.24
1817.00,99.24
1816.00,99.23
1815.00,99.22
1814.00,99.21
1813.00,99.20
1812.00,99.19
1811.00,99.18
1810.00,99.16
1809.00,99.15
1808.00,99.13
1807.00,99.11
1806.00,99.10
1805.00,99.09
1804.00,99.08
1803.00,99.06
1802.00,99.05
1801.00,99.04
1800.00,99.03
1799.00,99.01
1798.00,99.00
1797.00,98.99
1796.00,98.98
1795.00,98.95
1794.00,98.93
1793.00,98.91
1792.00,98.89
1791.00,98.86
1790.00,98.83
1789.00,98.82
1788.00,98.81
1787.00,98.78
1786.00,98.76
1785.00,98.74
1784.00,98.71
1783.00,98.68
1782.00,98.65
1781.00,98.62
1780.00,98.59
1779.00,98.55
1778.00,98.52
1777.00,98.50
1776.00,98.47
1775.00,98.42
1774.00,98.37
1773.00,98.32
1772.00,98.24
1771.00,98.13
1770.00,98.03
1769.00,97.92
1768.00,97.79
1767.00,97.63
1766.00,97.47
1765.00,97.32
1764.00,97.15
1763.00,96.94
1762.00,96.73
1761.00,96.55
1760.00,96.38
1759.00,96.19
1758.00,95.97
1757.00,95.70
1756.00,95.36
1755.00,94.96
1754.00,94.50
1753.00,93.87
1752.00,92.91
1751.00,91.54
1750.00,89.78
1749.00,87.60
1748.00,85.01
1747.00,82.11
1746.00,78.99
1745.00,75.58
1744.00,71.96
1743.00,68.48
1742.00,65.41
1741.00,62.72
1740.00,60.43
1739.00,58.87
1738.00,58.17
1737.00,58.16
1736.00,58.80
1735.00,60.38
1734.00,62.84
1733.00,65.45
1732.00,67.91
1731.00,70.53
1730.00,73.41
1729.00,76.31
1728.00,79.00
1727.00,81.44
1726.00,83.66
1725.00,85.71
1724.00,87.54
1723.00,89.11
1722.00,90.36
1721.00,91.30
1720.00,92.10
1719.00,92.92
1718.00,93.73
1717.00,94.38
1716.00,94.84
1715.00,95.22
1714.00,95.54
1713.00,95.79
1712.00,96.00
1711.00,96.21
1710.00,96.39
1709.00,96.53
1708.00,96.64
1707.00,96.76
1706.00,96.86
1705.00,96.92
1704.00,96.95
1703.00,96.98
1702.00,97.00
1701.00,96.99
1700.00,96.98
1699.00,97.01
1698.00,97.06
1697.00,97.10
1696.00,97.17
1695.00,97.26
1694.00,97.36
1693.00,97.43
1692.00,97.52
1691.00,97.62
1690.00,97.73
1689.00,97.82
1688.00,97.89
1687.00,97.96
1686.00,98.03
1685.00,98.09
1684.00,98.16
1683.00,98.22
1682.00,98.26
1681.00,98.28
1680.00,98.30
1679.00,98.33
1678.00,98.36
1677.00,98.37
1676.00,98.38
1675.00,98.41
1674.00,98.43
1673.00,98.44
1672.00,98.45
1671.00,98.46
1670.00,98.47
1669.00,98.46
1668.00,98.46
1667.00,98.47
1666.00,98.47
1665.00,98.47
1664.00,98.46
1663.00,98.46
1662.00,98.46
1661.00,98.45
1660.00,98.44
1659.00,98.44
1658.00,98.43
1657.00,98.42
1656.00,98.40
1655.00,98.39
1654.00,98.37
1653.00,98.32
1652.00,98.27
1651.00,98.24
1650.00,98.21
1649.00,98.17
1648.00,98.13
1647.00,98.13
1646.00,98.16
1645.00,98.20
1644.00,98.26
1643.00,98.32
1642.00,98.38
1641.00,98.43
1640.00,98.47
1639.00,98.51
1638.00,98.56
1637.00,98.59
1636.00,98.63
1635.00,98.68
1634.00,98.71
1633.00,98.72
1632.00,98.73
1631.00,98.75
1630.00,98.77
1629.00,98.79
1628.00,98.80
1627.00,98.81
1626.00,98.83
1625.00,98.83
1624.00,98.83
1623.00,98.85
1622.00,98.86
1621.00,98.86
1620.00,98.87
1619.00,98.88
1618.00,98.90
1617.00,98.90
1616.00,98.90
1615.00,98.91
1614.00,98.91
1613.00,98.91
1612.00,98.91
1611.00,98.92
1610.00,98.93
1609.00,98.93
1608.00,98.93
1607.00,98.94
1606.00,98.95
1605.00,98.95
1604.00,98.95
1603.00,98.95
1602.00,98.95
1601.00,98.95
1600.00,98.95
1599.00,98.95
1598.00,98.95
1597.00,98.95
1596.00,98.95
1595.00,98.95
1594.00,98.95
1593.00,98.94
1592.00,98.94
1591.00,98.94
1590.00,98.94
1589.00,98.93
1588.00,98.92
1587.00,98.91
1586.00,98.91
1585.00,98.90
1584.00,98.89
1583.00,98.88
1582.00,98.88
1581.00,98.86
1580.00,98.85
1579.00,98.85
1578.00,98.84
1577.00,98.83
1576.00,98.82
1575.00,98.82
1574.00,98.81
1573.00,98.80
1572.00,98.79
1571.00,98.78
1570.00,98.78
1569.00,98.77
1568.00,98.75
1567.00,98.74
1566.00,98.74
1565.00,98.72
1564.00,98.71
1563.00,98.71
1562.00,98.70
1561.00,98.69
1560.00,98.69
1559.00,98.69
1558.00,98.70
1557.00,98.70
1556.00,98.69
1555.00,98.69
1554.00,98.69
1553.00,98.69
1552.00,98.69
1551.00,98.69
1550.00,98.70
1549.00,98.69
1548.00,98.68
1547.00,98.68
1546.00,98.68
1545.00,98.68
1544.00,98.68
1543.00,98.69
1542.00,98.71
1541.00,98.70
1540.00,98.69
1539.00,98.69
1538.00,98.70
1537.00,98.69
1536.00,98.69
1535.00,98.69
1534.00,98.70
1533.00,98.70
1532.00,98.69
1531.00,98.70
1530.00,98.71
1529.00,98.71
1528.00,98.70
1527.00,98.71
1526.00,98.71
1525.00,98.71
1524.00,98.70
1523.00,98.70
1522.00,98.70
1521.00,98.69
1520.00,98.68
1519.00,98.68
1518.00,98.68
1517.00,98.66
1516.00,98.64
1515.00,98.64
1514.00,98.64
1513.00,98.63
1512.00,98.63
1511.00,98.63
1510.00,98.64
1509.00,98.63
1508.00,98.61
1507.00,98.60
1506.00,98.60
1505.00,98.58
1504.00,98.57
1503.00,98.56
1502.00,98.56
1501.00,98.54
1500.00,98.52
1499.00,98.51
1498.00,98.51
1497.00,98.47
1496.00,98.43
1495.00,98.41
1494.00,98.40
1493.00,98.36
1492.00,98.32
1491.00,98.29
1490.00,98.26
1489.00,98.19
1488.00,98.12
1487.00,98.06
1486.00,98.00
1485.00,97.91
1484.00,97.80
1483.00,97.69
1482.00,97.52
1481.00,97.29
1480.00,97.01
1479.00,96.64
1478.00,96.02
1477.00,94.95
1476.00,93.40
1475.00,91.44
1474.00,89.18
1473.00,86.91
1472.00,85.24
1471.00,84.33
1470.00,83.83
1469.00,83.46
1468.00,83.21
1467.00,83.11
1466.00,83.21
1465.00,83.59
1464.00,84.26
1463.00,85.14
1462.00,86.06
1461.00,86.92
1460.00,87.69
1459.00,88.34
1458.00,88.89
1457.00,89.43
1456.00,89.97
1455.00,90.47
1454.00,90.93
1453.00,91.40
1452.00,91.84
1451.00,92.21
1450.00,92.49
1449.00,92.70
1448.00,92.85
1447.00,92.95
1446.00,93.00
1445.00,93.03
1444.00,93.03
1443.00,93.02
1442.00,93.00
1441.00,92.98
1440.00,92.97
1439.00,92.97
1438.00,92.98
1437.00,93.02
1436.00,93.10
1435.00,93.21
1434.00,93.34
1433.00,93.51
1432.00,93.71
1431.00,93.94
1430.00,94.20
1429.00,94.46
1428.00,94.71
1427.00,94.95
1426.00,95.17
1425.00,95.41
1424.00,95.65
1423.00,95.86
1422.00,96.03
1421.00,96.19
1420.00,96.36
1419.00,96.53
1418.00,96.67
1417.00,96.78
1416.00,96.88
1415.00,96.95
1414.00,97.03
1413.00,97.11
1412.00,97.19
1411.00,97.25
1410.00,97.29
1409.00,97.34
1408.00,97.38
1407.00,97.41
1406.00,97.42
1405.00,97.44
1404.00,97.45
1403.00,97.44
1402.00,97.43
1401.00,97.41
1400.00,97.38
1399.00,97.33
1398.00,97.27
1397.00,97.20
1396.00,97.11
1395.00,96.99
1394.00,96.83
1393.00,96.68
1392.00,96.51
1391.00,96.32
1390.00,96.08
1389.00,95.78
1388.00,95.40
1387.00,94.93
1386.00,94.42
1385.00,93.89
1384.00,93.30
1383.00,92.61
1382.00,91.84
1381.00,90.99
1380.00,90.07
1379.00,89.12
1378.00,88.19
1377.00,87.31
1376.00,86.45
1375.00,85.61
1374.00,84.88
1373.00,84.36
1372.00,84.09
1371.00,84.07
1370.00,84.28
1369.00,84.68
1368.00,85.23
1367.00,85.85
1366.00,86.50
1365.00,87.18
1364.00,87.90
1363.00,88.64
1362.00,89.36
1361.00,90.00
1360.00,90.54
1359.00,91.02
1358.00,91.46
1357.00,91.85
1356.00,92.21
1355.00,92.56
1354.00,92.89
1353.00,93.23
1352.00,93.59
1351.00,93.97
1350.00,94.37
1349.00,94.79
1348.00,95.19
1347.00,95.57
1346.00,95.91
1345.00,96.20
1344.00,96.46
1343.00,96.67
1342.00,96.85
1341.00,97.00
1340.00,97.14
1339.00,97.27
1338.00,97.37
1337.00,97.46
1336.00,97.53
1335.00,97.59
1334.00,97.64
1333.00,97.67
1332.00,97.69
1331.00,97.70
1330.00,97.70
1329.00,97.69
1328.00,97.68
1327.00,97.66
1326.00,97.64
1325.00,97.62
1324.00,97.59
1323.00,97.56
1322.00,97.52
1321.00,97.48
1320.00,97.43
1319.00,97.38
1318.00,97.33
1317.00,97.28
1316.00,97.22
1315.00,97.16
1314.00,97.10
1313.00,97.03
1312.00,96.97
1311.00,96.91
1310.00,96.86
1309.00,96.81
1308.00,96.76
1307.00,96.71
1306.00,96.67
1305.00,96.62
1304.00,96.58
1303.00,96.54
1302.00,96.50
1301.00,96.46
1300.00,96.41
1299.00,96.37
1298.00,96.33
1297.00,96.29
1296.00,96.25
1295.00,96.21
1294.00,96.17
1293.00,96.12
1292.00,96.07
1291.00,96.02
1290.00,95.95
1289.00,95.88
1288.00,95.79
1287.00,95.70
1286.00,95.60
1285.00,95.50
1284.00,95.38
1283.00,95.25
1282.00,95.12
1281.00,94.97
1280.00,94.81
1279.00,94.63
1278.00,94.44
1277.00,94.22
1276.00,93.99
1275.00,93.72
1274.00,93.43
1273.00,93.11
1272.00,92.74
1271.00,92.33
1270.00,91.87
1269.00,91.36
1268.00,90.78
1267.00,90.15
1266.00,89.46
1265.00,88.70
1264.00,87.88
1263.00,87.00
1262.00,86.06
1261.00,85.07
1260.00,84.01
1259.00,82.91
1258.00,81.77
1257.00,80.59
1256.00,79.34
1255.00,78.05
1254.00,76.72
1253.00,75.32
1252.00,73.87
1251.00,72.38
1250.00,70.86
1249.00,69.32
1248.00,67.74
1247.00,66.18
1246.00,64.66
1245.00,63.18
1244.00,61.75
1243.00,60.44
1242.00,59.29
1241.00,58.31
1240.00,57.52
1239.00,57.00
1238.00,56.78
1237.00,56.86
1236.00,57.26
1235.00,58.01
1234.00,59.11
1233.00,60.50
1232.00,62.13
1231.00,63.97
1230.00,65.96
1229.00,68.00
1228.00,70.03
1227.00,72.03
1226.00,73.96
1225.00,75.76
1224.00,77.43
1223.00,78.96
1222.00,80.37
1221.00,81.65
1220.00,82.80
1219.00,83.85
1218.00,84.82
1217.00,85.71
1216.00,86.51
1215.00,87.27
1214.00,87.98
1213.00,88.65
1212.00,89.27
1211.00,89.85
1210.00,90.39
1209.00,90.88
1208.00,91.34
1207.00,91.75
1206.00,92.14
1205.00,92.49
1204.00,92.82
1203.00,93.11
1202.00,93.38
1201.00,93.62
1200.00,93.84
1199.00,94.03
1198.00,94.22
1197.00,94.38
1196.00,94.54
1195.00,94.68
1194.00,94.82
1193.00,94.95
1192.00,95.07
1191.00,95.17
1190.00,95.27
1189.00,95.36
1188.00,95.45
1187.00,95.53
1186.00,95.60
1185.00,95.66
1184.00,95.72
1183.00,95.77
1182.00,95.82
1181.00,95.87
1180.00,95.90
1179.00,95.94
1178.00,95.98
1177.00,96.01
1176.00,96.05
1175.00,96.07
1174.00,96.10
1173.00,96.11
1172.00,96.12
1171.00,96.12
1170.00,96.12
1169.00,96.12
1168.00,96.11
1167.00,96.10
1166.00,96.07
1165.00,96.04
1164.00,96.00
1163.00,95.95
1162.00,95.89
1161.00,95.82
1160.00,95.74
1159.00,95.66
1158.00,95.57
1157.00,95.48
1156.00,95.37
1155.00,95.25
1154.00,95.13
1153.00,95.01
1152.00,94.89
1151.00,94.78
1150.00,94.68
1149.00,94.60
1148.00,94.54
1147.00,94.50
1146.00,94.48
1145.00,94.47
1144.00,94.46
1143.00,94.47
1142.00,94.48
1141.00,94.48
1140.00,94.48
1139.00,94.47
1138.00,94.46
1137.00,94.45
1136.00,94.43
1135.00,94.40
1134.00,94.37
1133.00,94.32
1132.00,94.27
1131.00,94.21
1130.00,94.15
1129.00,94.10
1128.00,94.06
1127.00,94.05
1126.00,94.05
1125.00,94.06
1124.00,94.09
1123.00,94.12
1122.00,94.16
1121.00,94.20
1120.00,94.25
1119.00,94.29
1118.00,94.33
1117.00,94.37
1116.00,94.40
1115.00,94.44
1114.00,94.48
1113.00,94.52
1112.00,94.57
1111.00,94.61
1110.00,94.65
1109.00,94.69
1108.00,94.72
1107.00,94.74
1106.00,94.76
1105.00,94.77
1104.00,94.78
1103.00,94.78
1102.00,94.77
1101.00,94.77
1100.00,94.75
1099.00,94.74
1098.00,94.72
1097.00,94.69
1096.00,94.66
1095.00,94.63
1094.00,94.59
1093.00,94.55
1092.00,94.52
1091.00,94.48
1090.00,94.44
1089.00,94.39
1088.00,94.33
1087.00,94.27
1086.00,94.21
1085.00,94.16
1084.00,94.11
1083.00,94.05
1082.00,93.99
1081.00,93.92
1080.00,93.84
1079.00,93.76
1078.00,93.68
1077.00,93.59
1076.00,93.50
1075.00,93.39
1074.00,93.29
1073.00,93.18
1072.00,93.08
1071.00,92.98
1070.00,92.90
1069.00,92.84
1068.00,92.78
1067.00,92.75
1066.00,92.72
1065.00,92.70
1064.00,92.68
1063.00,92.65
1062.00,92.62
1061.00,92.57
1060.00,92.51
1059.00,92.44
1058.00,92.37
1057.00,92.27
1056.00,92.13
1055.00,91.97
1054.00,91.78
1053.00,91.56
1052.00,91.32
1051.00,91.06
1050.00,90.79
1049.00,90.52
1048.00,90.27
1047.00,90.06
1046.00,89.89
1045.00,89.76
1044.00,89.67
1043.00,89.61
1042.00,89.56
1041.00,89.52
1040.00,89.45
1039.00,89.34
1038.00,89.18
1037.00,88.96
1036.00,88.66
1035.00,88.30
1034.00,87.87
1033.00,87.35
1032.00,86.75
1031.00,86.07
1030.00,85.31
1029.00,84.47
1028.00,83.56
1027.00,82.60
1026.00,81.62
1025.00,80.65
1024.00,79.73
1023.00,78.92
1022.00,78.28
1021.00,77.84
1020.00,77.66
1019.00,77.77
1018.00,78.17
1017.00,78.83
1016.00,79.72
1015.00,80.79
1014.00,81.99
1013.00,83.23
1012.00,84.48
1011.00,85.68
1010.00,86.82
1009.00,87.86
1008.00,88.80
1007.00,89.64
1006.00,90.38
1005.00,91.02
1004.00,91.58
1003.00,92.06
1002.00,92.48
1001.00,92.85
1000.00,93.17
999.00,93.44
998.00,93.68
997.00,93.88
996.00,94.05
995.00,94.20
994.00,94.34
993.00,94.45
992.00,94.55
991.00,94.63
990.00,94.70
989.00,94.76
988.00,94.81
987.00,94.85
986.00,94.88
985.00,94.90
984.00,94.90
983.00,94.91
982.00,94.90
981.00,94.88
980.00,94.86
979.00,94.83
978.00,94.80
977.00,94.76
976.00,94.71
975.00,94.65
974.00,94.58
973.00,94.51
972.00,94.42
971.00,94.33
970.00,94.24
969.00,94.15
968.00,94.06
967.00,93.96
966.00,93.86
965.00,93.76
964.00,93.67
963.00,93.58
962.00,93.52
961.00,93.46
960.00,93.42
959.00,93.40
958.00,93.39
957.00,93.39
956.00,93.40
955.00,93.41
954.00,93.44
953.00,93.48
952.00,93.52
951.00,93.57
950.00,93.62
949.00,93.67
948.00,93.73
947.00,93.80
946.00,93.85
945.00,93.88
944.00,93.89
943.00,93.88
942.00,93.85
941.00,93.80
940.00,93.75
939.00,93.69
938.00,93.66
937.00,93.65
936.00,93.68
935.00,93.76
934.00,93.90
933.00,94.11
932.00,94.36
931.00,94.65
930.00,94.95
929.00,95.26
928.00,95.54
927.00,95.80
926.00,96.04
925.00,96.25
924.00,96.41
923.00,96.55
922.00,96.66
921.00,96.75
920.00,96.82
919.00,96.88
918.00,96.94
917.00,96.99
916.00,97.05
915.00,97.09
914.00,97.13
913.00,97.15
912.00,97.18
911.00,97.20
910.00,97.21
909.00,97.23
908.00,97.24
907.00,97.24
906.00,97.25
905.00,97.26
904.00,97.27
903.00,97.27
902.00,97.27
901.00,97.27
900.00,97.26
899.00,97.24
898.00,97.23
897.00,97.21
896.00,97.20
895.00,97.19
894.00,97.18
893.00,97.18
892.00,97.18
891.00,97.19
890.00,97.20
889.00,97.21
888.00,97.22
887.00,97.23
886.00,97.23
885.00,97.23
884.00,97.24
883.00,97.24
882.00,97.23
881.00,97.23
880.00,97.23
879.00,97.24
878.00,97.24
877.00,97.22
876.00,97.20
875.00,97.17
874.00,97.16
873.00,97.16
872.00,97.16
871.00,97.15
870.00,97.14
869.00,97.14
868.00,97.14
867.00,97.16
866.00,97.18
865.00,97.20
864.00,97.22
863.00,97.24
862.00,97.26
861.00,97.28
860.00,97.31
859.00,97.34
858.00,97.37
857.00,97.39
856.00,97.42
855.00,97.44
854.00,97.47
853.00,97.50
852.00,97.53
851.00,97.55
850.00,97.56
849.00,97.57
848.00,97.58
847.00,97.60
846.00,97.63
845.00,97.65
844.00,97.67
843.00,97.69
842.00,97.70
841.00,97.72
840.00,97.74
839.00,97.76
838.00,97.78
837.00,97.79
836.00,97.80
835.00,97.82
834.00,97.84
833.00,97.85
832.00,97.85
831.00,97.86
830.00,97.87
829.00,97.88
828.00,97.88
827.00,97.88
826.00,97.88
825.00,97.88
824.00,97.86
823.00,97.85
822.00,97.83
821.00,97.83
820.00,97.82
819.00,97.82
818.00,97.81
817.00,97.79
816.00,97.78
815.00,97.76
814.00,97.72
813.00,97.69
812.00,97.65
811.00,97.61
810.00,97.58
809.00,97.55
808.00,97.53
807.00,97.51
806.00,97.49
805.00,97.48
804.00,97.46
803.00,97.43
802.00,97.42
801.00,97.40
800.00,97.39
799.00,97.38
798.00,97.39
797.00,97.42
796.00,97.46
795.00,97.51
794.00,97.56
793.00,97.62
792.00,97.68
791.00,97.74
790.00,97.81
789.00,97.86
788.00,97.89
787.00,97.93
786.00,97.95
785.00,97.97
784.00,97.98
783.00,97.98
782.00,97.98
781.00,97.98
780.00,97.98
779.00,97.98
778.00,97.99
777.00,97.99
776.00,97.99
775.00,97.98
774.00,97.97
773.00,97.96
772.00,97.94
771.00,97.92
770.00,97.90
769.00,97.88
768.00,97.86
767.00,97.85
766.00,97.84
765.00,97.83
764.00,97.81
763.00,97.78
762.00,97.76
761.00,97.74
760.00,97.71
759.00,97.68
758.00,97.65
757.00,97.62
756.00,97.59
755.00,97.56
754.00,97.51
753.00,97.47
752.00,97.44
751.00,97.41
750.00,97.37
749.00,97.31
748.00,97.22
747.00,97.14
746.00,97.07
745.00,97.01
744.00,96.94
743.00,96.86
742.00,96.75
741.00,96.61
740.00,96.45
739.00,96.28
738.00,96.09
737.00,95.86
736.00,95.55
735.00,95.13
734.00,94.51
733.00,93.63
732.00,92.51
731.00,91.32
730.00,90.29
729.00,89.55
728.00,89.03
727.00,88.55
726.00,87.92
725.00,87.06
724.00,85.97
723.00,84.66
722.00,83.21
721.00,81.82
720.00,80.88
719.00,80.81
718.00,81.76
717.00,83.56
716.00,85.86
715.00,88.22
714.00,90.31
713.00,91.95
712.00,93.20
711.00,94.13
710.00,94.85
709.00,95.42
708.00,95.87
707.00,96.24
706.00,96.54
705.00,96.81
704.00,97.03
703.00,97.23
702.00,97.40
701.00,97.54
700.00,97.67
699.00,97.79
698.00,97.89
697.00,97.98
696.00,98.06
695.00,98.11
694.00,98.15
693.00,98.18
692.00,98.22
691.00,98.25
690.00,98.27
689.00,98.29
688.00,98.31
687.00,98.34
686.00,98.36
685.00,98.38
684.00,98.39
683.00,98.39
682.00,98.38
681.00,98.38
680.00,98.39
679.00,98.40
678.00,98.41
677.00,98.41
676.00,98.40
675.00,98.39
674.00,98.39
673.00,98.39
672.00,98.38
671.00,98.36
670.00,98.36
669.00,98.37
668.00,98.38
667.00,98.35
666.00,98.30
665.00,98.26
664.00,98.24
663.00,98.22
662.00,98.20
661.00,98.17
660.00,98.14
659.00,98.08
658.00,98.00
657.00,97.89
656.00,97.79
655.00,97.71
654.00,97.65
653.00,97.59
652.00,97.50
651.00,97.38
650.00,97.24
