Created as New Dataset,EVOH (32 mol% ethylene) Sigma
cm-1,%T
4000.00,99.65
3999.00,99.65
3998.00,99.65
3997.00,99.65
3996.00,99.65
3995.00,99.65
3994.00,99.65
3993.00,99.64
3992.00,99.64
3991.00,99.65
3990.00,99.65
3989.00,99.65
3988.00,99.65
3987.00,99.65
3986.00,99.65
3985.00,99.65
3984.00,99.65
3983.00,99.65
3982.00,99.65
3981.00,99.65
3980.00,99.65
3979.00,99.65
3978.00,99.65
3977.00,99.65
3976.00,99.65
3975.00,99.65
3974.00,99.65
3973.00,99.65
3972.00,99.65
3971.00,99.65
3970.00,99.65
3969.00,99.65
3968.00,99.65
3967.00,99.65
3966.00,99.65
3965.00,99.65
3964.00,99.65
3963.00,99.65
3962.00,99.65
3961.00,99.65
3960.00,99.65
3959.00,99.65
3958.00,99.65
3957.00,99.65
3956.00,99.65
3955.00,99.65
3954.00,99.65
3953.00,99.65
3952.00,99.65
3951.00,99.65
3950.00,99.65
3949.00,99.65
3948.00,99.65
3947.00,99.65
3946.00,99.65
3945.00,99.65
3944.00,99.65
3943.00,99.65
3942.00,99.65
3941.00,99.66
3940.00,99.66
3939.00,99.65
3938.00,99.65
3937.00,99.65
3936.00,99.65
3935.00,99.65
3934.00,99.65
3933.00,99.65
3932.00,99.65
3931.00,99.65
3930.00,99.65
3929.00,99.65
3928.00,99.65
3927.00,99.65
3926.00,99.65
3925.00,99.65
3924.00,99.65
3923.00,99.65
3922.00,99.65
3921.00,99.65
3920.00,99.65
3919.00,99.65
3918.00,99.65
3917.00,99.65
3916.00,99.65
3915.00,99.65
3914.00,99.65
3913.00,99.65
3912.00,99.65
3911.00,99.65
3910.00,99.66
3909.00,99.66
3908.00,99.65
3907.00,99.65
3906.00,99.65
3905.00,99.64
3904.00,99.64
3903.00,99.64
3902.00,99.64
3901.00,99.63
3900.00,99.63
3899.00,99.64
3898.00,99.64
3897.00,99.65
3896.00,99.65
3895.00,99.65
3894.00,99.65
3893.00,99.65
3892.00,99.65
3891.00,99.65
3890.00,99.65
3889.00,99.65
3888.00,99.65
3887.00,99.65
3886.00,99.65
3885.00,99.65
3884.00,99.65
3883.00,99.64
3882.00,99.64
3881.00,99.63
3880.00,99.64
3879.00,99.64
3878.00,99.64
3877.00,99.64
3876.00,99.64
3875.00,99.64
3874.00,99.64
3873.00,99.64
3872.00,99.64
3871.00,99.64
3870.00,99.64
3869.00,99.65
3868.00,99.65
3867.00,99.65
3866.00,99.64
3865.00,99.64
3864.00,99.64
3863.00,99.64
3862.00,99.64
3861.00,99.64
3860.00,99.64
3859.00,99.64
3858.00,99.64
3857.00,99.64
3856.00,99.64
3855.00,99.64
3854.00,99.65
3853.00,99.65
3852.00,99.65
3851.00,99.65
3850.00,99.64
3849.00,99.64
3848.00,99.64
3847.00,99.64
3846.00,99.64
3845.00,99.64
3844.00,99.64
3843.00,99.64
3842.00,99.64
3841.00,99.64
3840.00,99.64
3839.00,99.64
3838.00,99.64
3837.00,99.64
3836.00,99.64
3835.00,99.64
3834.00,99.64
3833.00,99.64
3832.00,99.64
3831.00,99.64
3830.00,99.64
3829.00,99.64
3828.00,99.63
3827.00,99.63
3826.00,99.63
3825.00,99.63
3824.00,99.63
3823.00,99.63
3822.00,99.63
3821.00,99.63
3820.00,99.63
3819.00,99.63
3818.00,99.63
3817.00,99.63
3816.00,99.63
3815.00,99.64
3814.00,99.64
3813.00,99.64
3812.00,99.63
3811.00,99.63
3810.00,99.63
3809.00,99.63
3808.00,99.63
3807.00,99.64
3806.00,99.64
3805.00,99.64
3804.00,99.63
3803.00,99.63
3802.00,99.63
3801.00,99.63
3800.00,99.63
3799.00,99.63
3798.00,99.62
3797.00,99.63
3796.00,99.63
3795.00,99.63
3794.00,99.63
3793.00,99.63
3792.00,99.63
3791.00,99.63
3790.00,99.63
3789.00,99.62
3788.00,99.62
3787.00,99.63
3786.00,99.63
3785.00,99.63
3784.00,99.63
3783.00,99.63
3782.00,99.62
3781.00,99.62
3780.00,99.62
3779.00,99.62
3778.00,99.61
3777.00,99.61
3776.00,99.61
3775.00,99.62
3774.00,99.62
3773.00,99.62
3772.00,99.62
3771.00,99.62
3770.00,99.62
3769.00,99.62
3768.00,99.62
3767.00,99.62
3766.00,99.61
3765.00,99.61
3764.00,99.61
3763.00,99.62
3762.00,99.61
3761.00,99.61
3760.00,99.61
3759.00,99.61
3758.00,99.61
3757.00,99.61
3756.00,99.61
3755.00,99.60
3754.00,99.60
3753.00,99.61
3752.00,99.61
3751.00,99.62
3750.00,99.61
3749.00,99.61
3748.00,99.60
3747.00,99.60
3746.00,99.59
3745.00,99.59
3744.00,99.60
3743.00,99.61
3742.00,99.61
3741.00,99.61
3740.00,99.61
3739.00,99.61
3738.00,99.61
3737.00,99.61
3736.00,99.61
3735.00,99.61
3734.00,99.61
3733.00,99.61
3732.00,99.61
3731.00,99.61
3730.00,99.62
3729.00,99.62
3728.00,99.62
3727.00,99.62
3726.00,99.62
3725.00,99.62
3724.00,99.62
3723.00,99.62
3722.00,99.62
3721.00,99.62
3720.00,99.62
3719.00,99.62
3718.00,99.62
3717.00,99.62
3716.00,99.62
3715.00,99.62
3714.00,99.62
3713.00,99.61
3712.00,99.61
3711.00,99.61
3710.00,99.62
3709.00,99.62
3708.00,99.63
3707.00,99.63
3706.00,99.63
3705.00,99.63
3704.00,99.63
3703.00,99.63
3702.00,99.63
3701.00,99.63
3700.00,99.63
3699.00,99.63
3698.00,99.62
3697.00,99.62
3696.00,99.62
3695.00,99.62
3694.00,99.62
3693.00,99.62
3692.00,99.61
3691.00,99.61
3690.00,99.61
3689.00,99.61
3688.00,99.61
3687.00,99.61
3686.00,99.61
3685.00,99.61
3684.00,99.60
3683.00,99.60
3682.00,99.60
3681.00,99.60
3680.00,99.59
3679.00,99.59
3678.00,99.59
3677.00,99.58
3676.00,99.58
3675.00,99.58
3674.00,99.58
3673.00,99.58
3672.00,99.57
3671.00,99.57
3670.00,99.57
3669.00,99.58
3668.00,99.58
3667.00,99.57
3666.00,99.57
3665.00,99.57
3664.00,99.57
3663.00,99.57
3662.00,99.57
3661.00,99.57
3660.00,99.57
3659.00,99.57
3658.00,99.56
3657.00,99.56
3656.00,99.55
3655.00,99.55
3654.00,99.55
3653.00,99.55
3652.00,99.55
3651.00,99.55
3650.00,99.55
3649.00,99.54
3648.00,99.53
3647.00,99.52
3646.00,99.52
3645.00,99.52
3644.00,99.52
3643.00,99.51
3642.00,99.51
3641.00,99.51
3640.00,99.51
3639.00,99.50
3638.00,99.50
3637.00,99.50
3636.00,99.49
3635.00,99.48
3634.00,99.47
3633.00,99.46
3632.00,99.45
3631.00,99.44
3630.00,99.42
3629.00,99.41
3628.00,99.40
3627.00,99.39
3626.00,99.38
3625.00,99.37
3624.00,99.37
3623.00,99.36
3622.00,99.35
3621.00,99.34
3620.00,99.33
3619.00,99.33
3618.00,99.32
3617.00,99.31
3616.00,99.30
3615.00,99.29
3614.00,99.29
3613.00,99.28
3612.00,99.27
3611.00,99.27
3610.00,99.26
3609.00,99.26
3608.00,99.25
3607.00,99.24
3606.00,99.22
3605.00,99.21
3604.00,99.21
3603.00,99.20
3602.00,99.19
3601.00,99.19
3600.00,99.18
3599.00,99.17
3598.00,99.17
3597.00,99.16
3596.00,99.14
3595.00,99.13
3594.00,99.12
3593.00,99.11
3592.00,99.11
3591.00,99.11
3590.00,99.10
3589.00,99.09
3588.00,99.07
3587.00,99.06
3586.00,99.04
3585.00,99.03
3584.00,99.02
3583.00,99.01
3582.00,99.00
3581.00,98.99
3580.00,98.98
3579.00,98.97
3578.00,98.96
3577.00,98.95
3576.00,98.93
3575.00,98.92
3574.00,98.91
3573.00,98.90
3572.00,98.88
3571.00,98.87
3570.00,98.85
3569.00,98.82
3568.00,98.80
3567.00,98.77
3566.00,98.75
3565.00,98.73
3564.00,98.71
3563.00,98.70
3562.00,98.68
3561.00,98.67
3560.00,98.66
3559.00,98.64
3558.00,98.63
3557.00,98.61
3556.00,98.59
3555.00,98.57
3554.00,98.55
3553.00,98.53
3552.00,98.50
3551.00,98.48
3550.00,98.46
3549.00,98.43
3548.00,98.41
3547.00,98.38
3546.00,98.36
3545.00,98.33
3544.00,98.30
3543.00,98.28
3542.00,98.26
3541.00,98.23
3540.00,98.21
3539.00,98.19
3538.00,98.16
3537.00,98.13
3536.00,98.11
3535.00,98.08
3534.00,98.05
3533.00,98.02
3532.00,98.00
3531.00,97.97
3530.00,97.94
3529.00,97.91
3528.00,97.88
3527.00,97.85
3526.00,97.81
3525.00,97.78
3524.00,97.75
3523.00,97.72
3522.00,97.69
3521.00,97.66
3520.00,97.63
3519.00,97.60
3518.00,97.57
3517.00,97.54
3516.00,97.50
3515.00,97.47
3514.00,97.44
3513.00,97.41
3512.00,97.38
3511.00,97.35
3510.00,97.31
3509.00,97.28
3508.00,97.24
3507.00,97.21
3506.00,97.18
3505.00,97.14
3504.00,97.11
3503.00,97.07
3502.00,97.03
3501.00,97.00
3500.00,96.96
3499.00,96.93
3498.00,96.90
3497.00,96.87
3496.00,96.83
3495.00,96.80
3494.00,96.77
3493.00,96.73
3492.00,96.70
3491.00,96.66
3490.00,96.62
3489.00,96.59
3488.00,96.55
3487.00,96.51
3486.00,96.48
3485.00,96.44
3484.00,96.41
3483.00,96.37
3482.00,96.33
3481.00,96.29
3480.00,96.25
3479.00,96.22
3478.00,96.19
3477.00,96.15
3476.00,96.12
3475.00,96.08
3474.00,96.05
3473.00,96.01
3472.00,95.98
3471.00,95.94
3470.00,95.91
3469.00,95.87
3468.00,95.83
3467.00,95.79
3466.00,95.76
3465.00,95.72
3464.00,95.69
3463.00,95.65
3462.00,95.61
3461.00,95.58
3460.00,95.55
3459.00,95.51
3458.00,95.48
3457.00,95.44
3456.00,95.41
3455.00,95.37
3454.00,95.33
3453.00,95.30
3452.00,95.26
3451.00,95.23
3450.00,95.20
3449.00,95.16
3448.00,95.11
3447.00,95.07
3446.00,95.03
3445.00,94.99
3444.00,94.96
3443.00,94.93
3442.00,94.90
3441.00,94.86
3440.00,94.83
3439.00,94.79
3438.00,94.75
3437.00,94.71
3436.00,94.68
3435.00,94.64
3434.00,94.61
3433.00,94.57
3432.00,94.53
3431.00,94.49
3430.00,94.46
3429.00,94.42
3428.00,94.39
3427.00,94.35
3426.00,94.32
3425.00,94.28
3424.00,94.25
3423.00,94.22
3422.00,94.18
3421.00,94.15
3420.00,94.11
3419.00,94.07
3418.00,94.03
3417.00,94.00
3416.00,93.97
3415.00,93.93
3414.00,93.90
3413.00,93.87
3412.00,93.84
3411.00,93.81
3410.00,93.77
3409.00,93.74
3408.00,93.70
3407.00,93.66
3406.00,93.63
3405.00,93.59
3404.00,93.56
3403.00,93.52
3402.00,93.49
3401.00,93.45
3400.00,93.42
3399.00,93.39
3398.00,93.36
3397.00,93.33
3396.00,93.30
3395.00,93.27
3394.00,93.24
3393.00,93.21
3392.00,93.18
3391.00,93.15
3390.00,93.12
3389.00,93.10
3388.00,93.07
3387.00,93.04
3386.00,93.01
3385.00,92.98
3384.00,92.95
3383.00,92.93
3382.00,92.90
3381.00,92.87
3380.00,92.85
3379.00,92.82
3378.00,92.80
3377.00,92.77
3376.00,92.74
3375.00,92.72
3374.00,92.69
3373.00,92.67
3372.00,92.64
3371.00,92.62
3370.00,92.59
3369.00,92.56
3368.00,92.53
3367.00,92.51
3366.00,92.49
3365.00,92.47
3364.00,92.45
3363.00,92.42
3362.00,92.40
3361.00,92.38
3360.00,92.35
3359.00,92.33
3358.00,92.31
3357.00,92.29
3356.00,92.27
3355.00,92.25
3354.00,92.23
3353.00,92.20
3352.00,92.18
3351.00,92.16
3350.00,92.14
3349.00,92.12
3348.00,92.11
3347.00,92.09
3346.00,92.07
3345.00,92.05
3344.00,92.03
3343.00,92.01
3342.00,91.99
3341.00,91.97
3340.00,91.95
3339.00,91.93
3338.00,91.91
3337.00,91.89
3336.00,91.87
3335.00,91.84
3334.00,91.82
3333.00,91.80
3332.00,91.78
3331.00,91.77
3330.00,91.74
3329.00,91.72
3328.00,91.70
3327.00,91.68
3326.00,91.65
3325.00,91.62
3324.00,91.59
3323.00,91.55
3322.00,91.52
3321.00,91.48
3320.00,91.44
3319.00,91.39
3318.00,91.33
3317.00,91.27
3316.00,91.21
3315.00,91.15
3314.00,91.07
3313.00,90.99
3312.00,90.90
3311.00,90.80
3310.00,90.70
3309.00,90.59
3308.00,90.48
3307.00,90.37
3306.00,90.27
3305.00,90.18
3304.00,90.09
3303.00,90.02
3302.00,89.96
3301.00,89.91
3300.00,89.89
3299.00,89.87
3298.00,89.88
3297.00,89.90
3296.00,89.93
3295.00,89.98
3294.00,90.03
3293.00,90.10
3292.00,90.16
3291.00,90.23
3290.00,90.30
3289.00,90.37
3288.00,90.44
3287.00,90.51
3286.00,90.57
3285.00,90.63
3284.00,90.69
3283.00,90.75
3282.00,90.80
3281.00,90.85
3280.00,90.90
3279.00,90.94
3278.00,90.99
3277.00,91.03
3276.00,91.06
3275.00,91.10
3274.00,91.14
3273.00,91.17
3272.00,91.21
3271.00,91.24
3270.00,91.28
3269.00,91.31
3268.00,91.34
3267.00,91.37
3266.00,91.39
3265.00,91.42
3264.00,91.45
3263.00,91.47
3262.00,91.50
3261.00,91.52
3260.00,91.54
3259.00,91.56
3258.00,91.58
3257.00,91.60
3256.00,91.63
3255.00,91.65
3254.00,91.66
3253.00,91.68
3252.00,91.70
3251.00,91.72
3250.00,91.75
3249.00,91.77
3248.00,91.79
3247.00,91.80
3246.00,91.82
3245.00,91.84
3244.00,91.86
3243.00,91.88
3242.00,91.90
3241.00,91.92
3240.00,91.94
3239.00,91.96
3238.00,91.98
3237.00,92.00
3236.00,92.02
3235.00,92.04
3234.00,92.06
3233.00,92.08
3232.00,92.11
3231.00,92.13
3230.00,92.15
3229.00,92.17
3228.00,92.19
3227.00,92.21
3226.00,92.23
3225.00,92.25
3224.00,92.28
3223.00,92.30
3222.00,92.32
3221.00,92.35
3220.00,92.37
3219.00,92.40
3218.00,92.42
3217.00,92.45
3216.00,92.47
3215.00,92.50
3214.00,92.52
3213.00,92.54
3212.00,92.57
3211.00,92.59
3210.00,92.62
3209.00,92.64
3208.00,92.67
3207.00,92.70
3206.00,92.73
3205.00,92.76
3204.00,92.79
3203.00,92.82
3202.00,92.85
3201.00,92.88
3200.00,92.91
3199.00,92.94
3198.00,92.97
3197.00,93.01
3196.00,93.04
3195.00,93.08
3194.00,93.11
3193.00,93.14
3192.00,93.18
3191.00,93.21
3190.00,93.24
3189.00,93.28
3188.00,93.31
3187.00,93.35
3186.00,93.38
3185.00,93.41
3184.00,93.44
3183.00,93.48
3182.00,93.52
3181.00,93.55
3180.00,93.59
3179.00,93.62
3178.00,93.65
3177.00,93.69
3176.00,93.72
3175.00,93.76
3174.00,93.79
3173.00,93.83
3172.00,93.86
3171.00,93.90
3170.00,93.93
3169.00,93.97
3168.00,94.00
3167.00,94.04
3166.00,94.07
3165.00,94.11
3164.00,94.14
3163.00,94.18
3162.00,94.21
3161.00,94.24
3160.00,94.28
3159.00,94.31
3158.00,94.35
3157.00,94.38
3156.00,94.41
3155.00,94.45
3154.00,94.48
3153.00,94.51
3152.00,94.54
3151.00,94.58
3150.00,94.61
3149.00,94.65
3148.00,94.68
3147.00,94.72
3146.00,94.75
3145.00,94.79
3144.00,94.82
3143.00,94.86
3142.00,94.89
3141.00,94.92
3140.00,94.95
3139.00,94.99
3138.00,95.02
3137.00,95.05
3136.00,95.08
3135.00,95.12
3134.00,95.15
3133.00,95.18
3132.00,95.21
3131.00,95.24
3130.00,95.27
3129.00,95.30
3128.00,95.34
3127.00,95.37
3126.00,95.40
3125.00,95.43
3124.00,95.46
3123.00,95.49
3122.00,95.53
3121.00,95.56
3120.00,95.59
3119.00,95.62
3118.00,95.65
3117.00,95.68
3116.00,95.71
3115.00,95.73
3114.00,95.76
3113.00,95.79
3112.00,95.81
3111.00,95.84
3110.00,95.87
3109.00,95.89
3108.00,95.91
3107.00,95.94
3106.00,95.96
3105.00,95.98
3104.00,96.01
3103.00,96.03
3102.00,96.05
3101.00,96.08
3100.00,96.10
3099.00,96.11
3098.00,96.13
3097.00,96.15
3096.00,96.16
3095.00,96.18
3094.00,96.20
3093.00,96.21
3092.00,96.23
3091.00,96.24
3090.00,96.26
3089.00,96.28
3088.00,96.31
3087.00,96.33
3086.00,96.36
3085.00,96.40
3084.00,96.43
3083.00,96.47
3082.00,96.51
3081.00,96.54
3080.00,96.57
3079.00,96.61
3078.00,96.64
3077.00,96.68
3076.00,96.71
3075.00,96.75
3074.00,96.78
3073.00,96.81
3072.00,96.84
3071.00,96.87
3070.00,96.90
3069.00,96.93
3068.00,96.95
3067.00,96.98
3066.00,97.01
3065.00,97.04
3064.00,97.06
3063.00,97.09
3062.00,97.11
3061.00,97.14
3060.00,97.16
3059.00,97.19
3058.00,97.21
3057.00,97.24
3056.00,97.26
3055.00,97.28
3054.00,97.30
3053.00,97.32
3052.00,97.34
3051.00,97.36
3050.00,97.38
3049.00,97.40
3048.00,97.42
3047.00,97.44
3046.00,97.46
3045.00,97.48
3044.00,97.50
3043.00,97.52
3042.00,97.53
3041.00,97.55
3040.00,97.57
3039.00,97.58
3038.00,97.60
3037.00,97.62
3036.00,97.63
3035.00,97.65
3034.00,97.66
3033.00,97.68
3032.00,97.70
3031.00,97.71
3030.00,97.73
3029.00,97.74
3028.00,97.76
3027.00,97.77
3026.00,97.78
3025.00,97.79
3024.00,97.81
3023.00,97.82
3022.00,97.84
3021.00,97.85
3020.00,97.86
3019.00,97.87
3018.00,97.88
3017.00,97.89
3016.00,97.90
3015.00,97.91
3014.00,97.91
3013.00,97.92
3012.00,97.93
3011.00,97.94
3010.00,97.95
3009.00,97.97
3008.00,97.98
3007.00,97.98
3006.00,97.99
3005.00,97.99
3004.00,97.99
3003.00,98.00
3002.00,98.00
3001.00,98.01
3000.00,98.01
2999.00,98.01
2998.00,98.01
2997.00,98.00
2996.00,98.00
2995.00,98.00
2994.00,98.00
2993.00,98.00
2992.00,97.99
2991.00,97.98
2990.00,97.98
2989.00,97.96
2988.00,97.95
2987.00,97.94
2986.00,97.92
2985.00,97.90
2984.00,97.88
2983.00,97.86
2982.00,97.83
2981.00,97.80
2980.00,97.77
2979.00,97.73
2978.00,97.68
2977.00,97.63
2976.00,97.57
2975.00,97.51
2974.00,97.44
2973.00,97.36
2972.00,97.28
2971.00,97.18
2970.00,97.07
2969.00,96.95
2968.00,96.82
2967.00,96.68
2966.00,96.52
2965.00,96.35
2964.00,96.16
2963.00,95.97
2962.00,95.76
2961.00,95.54
2960.00,95.31
2959.00,95.09
2958.00,94.86
2957.00,94.64
2956.00,94.43
2955.00,94.24
2954.00,94.05
2953.00,93.86
2952.00,93.66
2951.00,93.46
2950.00,93.23
2949.00,92.99
2948.00,92.74
2947.00,92.47
2946.00,92.19
2945.00,91.90
2944.00,91.61
2943.00,91.33
2942.00,91.04
2941.00,90.77
2940.00,90.50
2939.00,90.25
2938.00,90.01
2937.00,89.78
2936.00,89.57
2935.00,89.37
2934.00,89.18
2933.00,89.01
2932.00,88.84
2931.00,88.67
2930.00,88.50
2929.00,88.31
2928.00,88.11
2927.00,87.88
2926.00,87.62
2925.00,87.33
2924.00,87.03
2923.00,86.71
2922.00,86.40
2921.00,86.13
2920.00,85.92
2919.00,85.81
2918.00,85.81
2917.00,85.93
2916.00,86.16
2915.00,86.47
2914.00,86.81
2913.00,87.15
2912.00,87.44
2911.00,87.67
2910.00,87.85
2909.00,87.99
2908.00,88.10
2907.00,88.20
2906.00,88.30
2905.00,88.40
2904.00,88.51
2903.00,88.64
2902.00,88.78
2901.00,88.95
2900.00,89.14
2899.00,89.35
2898.00,89.58
2897.00,89.82
2896.00,90.07
2895.00,90.33
2894.00,90.58
2893.00,90.83
2892.00,91.07
2891.00,91.30
2890.00,91.52
2889.00,91.73
2888.00,91.93
2887.00,92.11
2886.00,92.28
2885.00,92.43
2884.00,92.57
2883.00,92.69
2882.00,92.79
2881.00,92.88
2880.00,92.95
2879.00,92.99
2878.00,93.03
2877.00,93.04
2876.00,93.04
2875.00,93.03
2874.00,93.02
2873.00,93.01
2872.00,92.99
2871.00,92.98
2870.00,92.95
2869.00,92.91
2868.00,92.85
2867.00,92.76
2866.00,92.66
2865.00,92.53
2864.00,92.38
2863.00,92.21
2862.00,92.03
2861.00,91.83
2860.00,91.63
2859.00,91.41
2858.00,91.17
2857.00,90.91
2856.00,90.60
2855.00,90.24
2854.00,89.84
2853.00,89.43
2852.00,89.08
2851.00,88.87
2850.00,88.86
2849.00,89.09
2848.00,89.53
2847.00,90.09
2846.00,90.69
2845.00,91.25
2844.00,91.73
2843.00,92.14
2842.00,92.47
2841.00,92.75
2840.00,93.00
2839.00,93.22
2838.00,93.41
2837.00,93.58
2836.00,93.75
2835.00,93.90
2834.00,94.05
2833.00,94.19
2832.00,94.32
2831.00,94.45
2830.00,94.58
2829.00,94.70
2828.00,94.82
2827.00,94.94
2826.00,95.04
2825.00,95.15
2824.00,95.24
2823.00,95.33
2822.00,95.42
2821.00,95.50
2820.00,95.58
2819.00,95.66
2818.00,95.73
2817.00,95.80
2816.00,95.87
2815.00,95.94
2814.00,96.00
2813.00,96.07
2812.00,96.14
2811.00,96.20
2810.00,96.26
2809.00,96.32
2808.00,96.38
2807.00,96.44
2806.00,96.49
2805.00,96.55
2804.00,96.60
2803.00,96.65
2802.00,96.69
2801.00,96.74
2800.00,96.79
2799.00,96.83
2798.00,96.87
2797.00,96.92
2796.00,96.95
2795.00,96.99
2794.00,97.02
2793.00,97.05
2792.00,97.09
2791.00,97.12
2790.00,97.15
2789.00,97.18
2788.00,97.20
2787.00,97.23
2786.00,97.26
2785.00,97.28
2784.00,97.30
2783.00,97.33
2782.00,97.35
2781.00,97.37
2780.00,97.39
2779.00,97.41
2778.00,97.43
2777.00,97.45
2776.00,97.46
2775.00,97.48
2774.00,97.49
2773.00,97.51
2772.00,97.52
2771.00,97.54
2770.00,97.55
2769.00,97.56
2768.00,97.57
2767.00,97.59
2766.00,97.60
2765.00,97.61
2764.00,97.62
2763.00,97.62
2762.00,97.63
2761.00,97.64
2760.00,97.65
2759.00,97.66
2758.00,97.67
2757.00,97.68
2756.00,97.68
2755.00,97.69
2754.00,97.69
2753.00,97.70
2752.00,97.70
2751.00,97.71
2750.00,97.72
2749.00,97.73
2748.00,97.74
2747.00,97.75
2746.00,97.75
2745.00,97.76
2744.00,97.76
2743.00,97.77
2742.00,97.77
2741.00,97.78
2740.00,97.79
2739.00,97.79
2738.00,97.80
2737.00,97.81
2736.00,97.82
2735.00,97.83
2734.00,97.83
2733.00,97.84
2732.00,97.85
2731.00,97.86
2730.00,97.87
2729.00,97.88
2728.00,97.89
2727.00,97.90
2726.00,97.91
2725.00,97.91
2724.00,97.92
2723.00,97.93
2722.00,97.94
2721.00,97.95
2720.00,97.96
2719.00,97.96
2718.00,97.97
2717.00,97.98
2716.00,97.98
2715.00,97.98
2714.00,97.99
2713.00,97.99
2712.00,98.00
2711.00,98.00
2710.00,98.01
2709.00,98.01
2708.00,98.02
2707.00,98.02
2706.00,98.02
2705.00,98.03
2704.00,98.03
2703.00,98.03
2702.00,98.03
2701.00,98.03
2700.00,98.03
2699.00,98.04
2698.00,98.04
2697.00,98.04
2696.00,98.04
2695.00,98.04
2694.00,98.04
2693.00,98.05
2692.00,98.05
2691.00,98.05
2690.00,98.05
2689.00,98.05
2688.00,98.06
2687.00,98.06
2686.00,98.06
2685.00,98.06
2684.00,98.07
2683.00,98.07
2682.00,98.08
2681.00,98.08
2680.00,98.08
2679.00,98.08
2678.00,98.09
2677.00,98.09
2676.00,98.10
2675.00,98.10
2674.00,98.10
2673.00,98.10
2672.00,98.11
2671.00,98.11
2670.00,98.11
2669.00,98.12
2668.00,98.12
2667.00,98.12
2666.00,98.13
2665.00,98.12
2664.00,98.12
2663.00,98.12
2662.00,98.11
2661.00,98.11
2660.00,98.10
2659.00,98.10
2658.00,98.10
2657.00,98.11
2656.00,98.11
2655.00,98.11
2654.00,98.11
2653.00,98.11
2652.00,98.12
2651.00,98.12
2650.00,98.13
2649.00,98.13
2648.00,98.14
2647.00,98.14
2646.00,98.15
2645.00,98.15
2644.00,98.16
2643.00,98.16
2642.00,98.17
2641.00,98.18
2640.00,98.18
2639.00,98.19
2638.00,98.20
2637.00,98.20
2636.00,98.21
2635.00,98.22
2634.00,98.22
2633.00,98.23
2632.00,98.24
2631.00,98.25
2630.00,98.25
2629.00,98.26
2628.00,98.26
2627.00,98.27
2626.00,98.28
2625.00,98.29
2624.00,98.30
2623.00,98.31
2622.00,98.32
2621.00,98.32
2620.00,98.33
2619.00,98.34
2618.00,98.35
2617.00,98.36
2616.00,98.37
2615.00,98.37
2614.00,98.38
2613.00,98.38
2612.00,98.39
2611.00,98.40
2610.00,98.41
2609.00,98.41
2608.00,98.42
2607.00,98.43
2606.00,98.44
2605.00,98.44
2604.00,98.45
2603.00,98.46
2602.00,98.46
2601.00,98.47
2600.00,98.48
2599.00,98.48
2598.00,98.49
2597.00,98.49
2596.00,98.50
2595.00,98.50
2594.00,98.51
2593.00,98.52
2592.00,98.53
2591.00,98.54
2590.00,98.55
2589.00,98.55
2588.00,98.56
2587.00,98.56
2586.00,98.57
2585.00,98.57
2584.00,98.57
2583.00,98.57
2582.00,98.57
2581.00,98.58
2580.00,98.59
2579.00,98.60
2578.00,98.61
2577.00,98.61
2576.00,98.62
2575.00,98.62
2574.00,98.63
2573.00,98.63
2572.00,98.63
2571.00,98.64
2570.00,98.64
2569.00,98.65
2568.00,98.66
2567.00,98.66
2566.00,98.67
2565.00,98.67
2564.00,98.67
2563.00,98.67
2562.00,98.67
2561.00,98.68
2560.00,98.68
2559.00,98.69
2558.00,98.69
2557.00,98.70
2556.00,98.70
2555.00,98.71
2554.00,98.72
2553.00,98.72
2552.00,98.73
2551.00,98.73
2550.00,98.73
2549.00,98.73
2548.00,98.73
2547.00,98.73
2546.00,98.74
2545.00,98.74
2544.00,98.74
2543.00,98.75
2542.00,98.75
2541.00,98.76
2540.00,98.76
2539.00,98.76
2538.00,98.77
2537.00,98.77
2536.00,98.78
2535.00,98.78
2534.00,98.78
2533.00,98.78
2532.00,98.78
2531.00,98.78
2530.00,98.78
2529.00,98.78
2528.00,98.79
2527.00,98.80
2526.00,98.80
2525.00,98.80
2524.00,98.81
2523.00,98.81
2522.00,98.82
2521.00,98.82
2520.00,98.82
2519.00,98.82
2518.00,98.83
2517.00,98.83
2516.00,98.83
2515.00,98.83
2514.00,98.84
2513.00,98.84
2512.00,98.85
2511.00,98.85
2510.00,98.86
2509.00,98.86
2508.00,98.86
2507.00,98.87
2506.00,98.87
2505.00,98.88
2504.00,98.88
2503.00,98.88
2502.00,98.88
2501.00,98.88
2500.00,98.89
2499.00,98.89
2498.00,98.90
2497.00,98.90
2496.00,98.90
2495.00,98.90
2494.00,98.91
2493.00,98.91
2492.00,98.92
2491.00,98.92
2490.00,98.92
2489.00,98.93
2488.00,98.93
2487.00,98.93
2486.00,98.94
2485.00,98.94
2484.00,98.94
2483.00,98.95
2482.00,98.95
2481.00,98.96
2480.00,98.97
2479.00,98.97
2478.00,98.97
2477.00,98.97
2476.00,98.97
2475.00,98.97
2474.00,98.98
2473.00,98.98
2472.00,98.99
2471.00,98.99
2470.00,98.99
2469.00,98.99
2468.00,98.99
2467.00,98.99
2466.00,98.99
2465.00,99.00
2464.00,99.00
2463.00,99.00
2462.00,98.99
2461.00,98.99
2460.00,98.99
2459.00,98.98
2458.00,98.98
2457.00,98.98
2456.00,98.98
2455.00,98.98
2454.00,98.98
2453.00,98.98
2452.00,98.98
2451.00,98.99
2450.00,98.99
2449.00,99.00
2448.00,99.01
2447.00,99.01
2446.00,99.01
2445.00,99.01
2444.00,99.01
2443.00,99.01
2442.00,99.01
2441.00,99.01
2440.00,99.02
2439.00,99.02
2438.00,99.03
2437.00,99.03
2436.00,99.04
2435.00,99.05
2434.00,99.05
2433.00,99.06
2432.00,99.06
2431.00,99.06
2430.00,99.07
2429.00,99.08
2428.00,99.08
2427.00,99.08
2426.00,99.08
2425.00,99.08
2424.00,99.07
2423.00,99.08
2422.00,99.08
2421.00,99.08
2420.00,99.09
2419.00,99.10
2418.00,99.11
2417.00,99.11
2416.00,99.11
2415.00,99.11
2414.00,99.11
2413.00,99.11
2412.00,99.11
2411.00,99.12
2410.00,99.12
2409.00,99.13
2408.00,99.13
2407.00,99.15
2406.00,99.16
2405.00,99.16
2404.00,99.16
2403.00,99.16
2402.00,99.16
2401.00,99.16
2400.00,99.16
2399.00,99.16
2398.00,99.17
2397.00,99.17
2396.00,99.17
2395.00,99.17
2394.00,99.17
2393.00,99.18
2392.00,99.18
2391.00,99.19
2390.00,99.19
2389.00,99.20
2388.00,99.20
2387.00,99.21
2386.00,99.21
2385.00,99.22
2384.00,99.23
2383.00,99.24
2382.00,99.26
2381.00,99.28
2380.00,99.30
2379.00,99.31
2378.00,99.33
2377.00,99.34
2376.00,99.36
2375.00,99.38
2374.00,99.39
2373.00,99.40
2372.00,99.40
2371.00,99.40
2370.00,99.40
2369.00,99.41
2368.00,99.40
2367.00,99.40
2366.00,99.39
2365.00,99.38
2364.00,99.38
2363.00,99.37
2362.00,99.36
2361.00,99.35
2360.00,99.34
2359.00,99.34
2358.00,99.34
2357.00,99.35
2356.00,99.36
2355.00,99.37
2354.00,99.38
2353.00,99.37
2352.00,99.36
2351.00,99.35
2350.00,99.35
2349.00,99.34
2348.00,99.34
2347.00,99.33
2346.00,99.32
2345.00,99.31
2344.00,99.30
2343.00,99.29
2342.00,99.29
2341.00,99.29
2340.00,99.28
2339.00,99.28
2338.00,99.27
2337.00,99.26
2336.00,99.26
2335.00,99.26
2334.00,99.27
2333.00,99.27
2332.00,99.27
2331.00,99.27
2330.00,99.26
2329.00,99.26
2328.00,99.23
2327.00,99.18
2326.00,99.11
2325.00,99.04
2324.00,99.00
2323.00,99.00
2322.00,99.03
2321.00,99.07
2320.00,99.10
2319.00,99.11
2318.00,99.11
2317.00,99.11
2316.00,99.12
2315.00,99.12
2314.00,99.12
2313.00,99.12
2312.00,99.11
2311.00,99.11
2310.00,99.11
2309.00,99.11
2308.00,99.10
2307.00,99.10
2306.00,99.09
2305.00,99.08
2304.00,99.08
2303.00,99.07
2302.00,99.07
2301.00,99.07
2300.00,99.07
2299.00,99.07
2298.00,99.06
2297.00,99.05
2296.00,99.04
2295.00,99.03
2294.00,99.01
2293.00,99.00
2292.00,98.99
2291.00,98.97
2290.00,98.96
2289.00,98.95
2288.00,98.93
2287.00,98.92
2286.00,98.92
2285.00,98.91
2284.00,98.92
2283.00,98.92
2282.00,98.94
2281.00,98.95
2280.00,98.96
2279.00,98.98
2278.00,98.99
2277.00,98.99
2276.00,99.00
2275.00,99.00
2274.00,99.00
2273.00,99.01
2272.00,99.01
2271.00,99.02
2270.00,99.02
2269.00,99.03
2268.00,99.03
2267.00,99.04
2266.00,99.05
2265.00,99.06
2264.00,99.06
2263.00,99.06
2262.00,99.06
2261.00,99.05
2260.00,99.04
2259.00,99.04
2258.00,99.03
2257.00,99.03
2256.00,99.04
2255.00,99.05
2254.00,99.07
2253.00,99.09
2252.00,99.09
2251.00,99.09
2250.00,99.08
2249.00,99.07
2248.00,99.06
2247.00,99.06
2246.00,99.06
2245.00,99.06
2244.00,99.06
2243.00,99.05
2242.00,99.05
2241.00,99.05
2240.00,99.06
2239.00,99.06
2238.00,99.06
2237.00,99.06
2236.00,99.06
2235.00,99.06
2234.00,99.06
2233.00,99.05
2232.00,99.05
2231.00,99.05
2230.00,99.06
2229.00,99.06
2228.00,99.06
2227.00,99.06
2226.00,99.06
2225.00,99.06
2224.00,99.05
2223.00,99.05
2222.00,99.06
2221.00,99.07
2220.00,99.07
2219.00,99.06
2218.00,99.05
2217.00,99.04
2216.00,99.04
2215.00,99.05
2214.00,99.05
2213.00,99.06
2212.00,99.07
2211.00,99.08
2210.00,99.08
2209.00,99.06
2208.00,99.05
2207.00,99.04
2206.00,99.03
2205.00,99.03
2204.00,99.03
2203.00,99.03
2202.00,99.03
2201.00,99.03
2200.00,99.02
2199.00,99.00
2198.00,98.99
2197.00,98.98
2196.00,98.97
2195.00,98.96
2194.00,98.96
2193.00,98.95
2192.00,98.95
2191.00,98.95
2190.00,98.95
2189.00,98.94
2188.00,98.93
2187.00,98.91
2186.00,98.88
2185.00,98.87
2184.00,98.88
2183.00,98.91
2182.00,98.96
2181.00,99.01
2180.00,99.03
2179.00,99.03
2178.00,99.01
2177.00,98.99
2176.00,98.99
2175.00,99.00
2174.00,99.01
2173.00,98.98
2172.00,98.95
2171.00,98.91
2170.00,98.87
2169.00,98.84
2168.00,98.81
2167.00,98.77
2166.00,98.75
2165.00,98.72
2164.00,98.68
2163.00,98.63
2162.00,98.60
2161.00,98.65
2160.00,98.82
2159.00,99.09
2158.00,99.36
2157.00,99.53
2156.00,99.58
2155.00,99.55
2154.00,99.50
2153.00,99.45
2152.00,99.41
2151.00,99.38
2150.00,99.35
2149.00,99.32
2148.00,99.31
2147.00,99.31
2146.00,99.34
2145.00,99.37
2144.00,99.39
2143.00,99.40
2142.00,99.40
2141.00,99.39
2140.00,99.38
2139.00,99.38
2138.00,99.38
2137.00,99.39
2136.00,99.42
2135.00,99.47
2134.00,99.52
2133.00,99.54
2132.00,99.54
2131.00,99.51
2130.00,99.48
2129.00,99.44
2128.00,99.41
2127.00,99.39
2126.00,99.36
2125.00,99.34
2124.00,99.33
2123.00,99.31
2122.00,99.30
2121.00,99.29
2120.00,99.27
2119.00,99.25
2118.00,99.23
2117.00,99.21
2116.00,99.18
2115.00,99.15
2114.00,99.13
2113.00,99.11
2112.00,99.11
2111.00,99.12
2110.00,99.12
2109.00,99.13
2108.00,99.13
2107.00,99.13
2106.00,99.13
2105.00,99.13
2104.00,99.13
2103.00,99.13
2102.00,99.12
2101.00,99.12
2100.00,99.12
2099.00,99.13
2098.00,99.14
2097.00,99.17
2096.00,99.20
2095.00,99.24
2094.00,99.26
2093.00,99.26
2092.00,99.24
2091.00,99.22
2090.00,99.19
2089.00,99.17
2088.00,99.15
2087.00,99.14
2086.00,99.13
2085.00,99.12
2084.00,99.11
2083.00,99.10
2082.00,99.09
2081.00,99.08
2080.00,99.07
2079.00,99.07
2078.00,99.07
2077.00,99.08
2076.00,99.08
2075.00,99.08
2074.00,99.09
2073.00,99.10
2072.00,99.10
2071.00,99.10
2070.00,99.10
2069.00,99.09
2068.00,99.09
2067.00,99.09
2066.00,99.09
2065.00,99.09
2064.00,99.09
2063.00,99.09
2062.00,99.09
2061.00,99.08
2060.00,99.07
2059.00,99.06
2058.00,99.06
2057.00,99.05
2056.00,99.05
2055.00,99.05
2054.00,99.04
2053.00,98.99
2052.00,98.91
2051.00,98.84
2050.00,98.81
2049.00,98.83
2048.00,98.87
2047.00,98.92
2046.00,98.95
2045.00,98.96
2044.00,98.97
2043.00,98.97
2042.00,98.96
2041.00,98.93
2040.00,98.89
2039.00,98.85
2038.00,98.83
2037.00,98.83
2036.00,98.85
2035.00,98.88
2034.00,98.91
2033.00,98.95
2032.00,98.98
2031.00,99.01
2030.00,99.03
2029.00,99.03
2028.00,99.03
2027.00,99.03
2026.00,99.02
2025.00,99.01
2024.00,99.00
2023.00,99.01
2022.00,99.03
2021.00,99.04
2020.00,99.05
2019.00,99.04
2018.00,99.04
2017.00,99.03
2016.00,99.02
2015.00,99.02
2014.00,99.02
2013.00,99.02
2012.00,99.01
2011.00,99.01
2010.00,99.01
2009.00,99.04
2008.00,99.09
2007.00,99.15
2006.00,99.20
2005.00,99.23
2004.00,99.23
2003.00,99.21
2002.00,99.18
2001.00,99.15
2000.00,99.11
1999.00,99.08
1998.00,99.05
1997.00,99.04
1996.00,99.02
1995.00,99.01
1994.00,99.01
1993.00,99.00
1992.00,98.99
1991.00,98.97
1990.00,98.95
1989.00,98.94
1988.00,98.92
1987.00,98.91
1986.00,98.89
1985.00,98.85
1984.00,98.81
1983.00,98.76
1982.00,98.70
1981.00,98.65
1980.00,98.63
1979.00,98.67
1978.00,98.78
1977.00,98.90
1976.00,99.00
1975.00,99.06
1974.00,99.10
1973.00,99.12
1972.00,99.12
1971.00,99.13
1970.00,99.13
1969.00,99.13
1968.00,99.13
1967.00,99.12
1966.00,99.11
1965.00,99.09
1964.00,99.09
1963.00,99.10
1962.00,99.12
1961.00,99.15
1960.00,99.18
1959.00,99.20
1958.00,99.22
1957.00,99.22
1956.00,99.20
1955.00,99.18
1954.00,99.16
1953.00,99.15
1952.00,99.15
1951.00,99.16
1950.00,99.18
1949.00,99.18
1948.00,99.17
1947.00,99.16
1946.00,99.15
1945.00,99.14
1944.00,99.15
1943.00,99.16
1942.00,99.17
1941.00,99.17
1940.00,99.18
1939.00,99.19
1938.00,99.19
1937.00,99.20
1936.00,99.20
1935.00,99.20
1934.00,99.20
1933.00,99.20
1932.00,99.20
1931.00,99.20
1930.00,99.20
1929.00,99.21
1928.00,99.22
1927.00,99.22
1926.00,99.22
1925.00,99.22
1924.00,99.21
1923.00,99.19
1922.00,99.19
1921.00,99.18
1920.00,99.18
1919.00,99.18
1918.00,99.18
1917.00,99.18
1916.00,99.18
1915.00,99.18
1914.00,99.18
1913.00,99.19
1912.00,99.19
1911.00,99.19
1910.00,99.19
1909.00,99.18
1908.00,99.18
1907.00,99.19
1906.00,99.19
1905.00,99.19
1904.00,99.19
1903.00,99.20
1902.00,99.20
1901.00,99.20
1900.00,99.19
1899.00,99.18
1898.00,99.19
1897.00,99.19
1896.00,99.19
1895.00,99.20
1894.00,99.21
1893.00,99.21
1892.00,99.21
1891.00,99.22
1890.00,99.22
1889.00,99.21
1888.00,99.21
1887.00,99.21
1886.00,99.21
1885.00,99.21
1884.00,99.20
1883.00,99.20
1882.00,99.20
1881.00,99.20
1880.00,99.20
1879.00,99.20
1878.00,99.20
1877.00,99.20
1876.00,99.20
1875.00,99.20
1874.00,99.20
1873.00,99.21
1872.00,99.21
1871.00,99.21
1870.00,99.22
1869.00,99.22
1868.00,99.22
1867.00,99.21
1866.00,99.21
1865.00,99.21
1864.00,99.21
1863.00,99.21
1862.00,99.22
1861.00,99.22
1860.00,99.22
1859.00,99.22
1858.00,99.22
1857.00,99.22
1856.00,99.22
1855.00,99.21
1854.00,99.21
1853.00,99.21
1852.00,99.21
1851.00,99.22
1850.00,99.22
1849.00,99.22
1848.00,99.22
1847.00,99.22
1846.00,99.22
1845.00,99.21
1844.00,99.21
1843.00,99.22
1842.00,99.22
1841.00,99.22
1840.00,99.23
1839.00,99.23
1838.00,99.24
1837.00,99.24
1836.00,99.23
1835.00,99.23
1834.00,99.23
1833.00,99.23
1832.00,99.23
1831.00,99.23
1830.00,99.22
1829.00,99.22
1828.00,99.21
1827.00,99.21
1826.00,99.21
1825.00,99.21
1824.00,99.20
1823.00,99.21
1822.00,99.21
1821.00,99.23
1820.00,99.24
1819.00,99.26
1818.00,99.28
1817.00,99.29
1816.00,99.29
1815.00,99.29
1814.00,99.27
1813.00,99.26
1812.00,99.25
1811.00,99.24
1810.00,99.24
1809.00,99.23
1808.00,99.23
1807.00,99.23
1806.00,99.23
1805.00,99.23
1804.00,99.23
1803.00,99.23
1802.00,99.23
1801.00,99.22
1800.00,99.21
1799.00,99.21
1798.00,99.21
1797.00,99.21
1796.00,99.21
1795.00,99.21
1794.00,99.21
1793.00,99.20
1792.00,99.19
1791.00,99.19
1790.00,99.19
1789.00,99.18
1788.00,99.18
1787.00,99.17
1786.00,99.17
1785.00,99.17
1784.00,99.17
1783.00,99.16
1782.00,99.16
1781.00,99.16
1780.00,99.15
1779.00,99.15
1778.00,99.15
1777.00,99.15
1776.00,99.15
1775.00,99.15
1774.00,99.14
1773.00,99.14
1772.00,99.13
1771.00,99.12
1770.00,99.12
1769.00,99.11
1768.00,99.10
1767.00,99.10
1766.00,99.09
1765.00,99.08
1764.00,99.07
1763.00,99.06
1762.00,99.06
1761.00,99.05
1760.00,99.05
1759.00,99.04
1758.00,99.04
1757.00,99.03
1756.00,99.03
1755.00,99.03
1754.00,99.03
1753.00,99.03
1752.00,99.03
1751.00,99.03
1750.00,99.03
1749.00,99.03
1748.00,99.03
1747.00,99.03
1746.00,99.03
1745.00,99.03
1744.00,99.03
1743.00,99.03
1742.00,99.03
1741.00,99.03
1740.00,99.03
1739.00,99.03
1738.00,99.04
1737.00,99.04
1736.00,99.04
1735.00,99.03
1734.00,99.03
1733.00,99.03
1732.00,99.03
1731.00,99.03
1730.00,99.02
1729.00,99.02
1728.00,99.02
1727.00,99.02
1726.00,99.02
1725.00,99.02
1724.00,99.02
1723.00,99.02
1722.00,99.02
1721.00,99.01
1720.00,99.01
1719.00,99.00
1718.00,99.00
1717.00,99.00
1716.00,98.99
1715.00,98.98
1714.00,98.98
1713.00,98.98
1712.00,98.97
1711.00,98.97
1710.00,98.96
1709.00,98.96
1708.00,98.95
1707.00,98.95
1706.00,98.94
1705.00,98.93
1704.00,98.93
1703.00,98.93
1702.00,98.92
1701.00,98.91
1700.00,98.90
1699.00,98.90
1698.00,98.90
1697.00,98.89
1696.00,98.87
1695.00,98.85
1694.00,98.85
1693.00,98.84
1692.00,98.83
1691.00,98.82
1690.00,98.82
1689.00,98.81
1688.00,98.80
1687.00,98.79
1686.00,98.78
1685.00,98.76
1684.00,98.73
1683.00,98.71
1682.00,98.70
1681.00,98.69
1680.00,98.67
1679.00,98.65
1678.00,98.64
1677.00,98.62
1676.00,98.60
1675.00,98.58
1674.00,98.56
1673.00,98.56
1672.00,98.54
1671.00,98.53
1670.00,98.51
1669.00,98.49
1668.00,98.46
1667.00,98.45
1666.00,98.44
1665.00,98.42
1664.00,98.41
1663.00,98.38
1662.00,98.36
1661.00,98.33
1660.00,98.31
1659.00,98.28
1658.00,98.25
1657.00,98.23
1656.00,98.20
1655.00,98.17
1654.00,98.09
1653.00,97.97
1652.00,97.88
1651.00,97.82
1650.00,97.77
1649.00,97.68
1648.00,97.52
1647.00,97.28
1646.00,97.00
1645.00,96.74
1644.00,96.46
1643.00,96.15
1642.00,95.77
1641.00,95.36
1640.00,94.96
1639.00,94.62
1638.00,94.36
1637.00,94.28
1636.00,94.45
1635.00,94.82
1634.00,95.24
1633.00,95.64
1632.00,96.00
1631.00,96.35
1630.00,96.66
1629.00,96.94
1628.00,97.17
1627.00,97.35
1626.00,97.48
1625.00,97.60
1624.00,97.73
1623.00,97.85
1622.00,97.94
1621.00,98.01
1620.00,98.06
1619.00,98.11
1618.00,98.16
1617.00,98.20
1616.00,98.23
1615.00,98.25
1614.00,98.27
1613.00,98.28
1612.00,98.29
1611.00,98.31
1610.00,98.33
1609.00,98.35
1608.00,98.37
1607.00,98.39
1606.00,98.41
1605.00,98.42
1604.00,98.43
1603.00,98.44
1602.00,98.45
1601.00,98.45
1600.00,98.45
1599.00,98.45
1598.00,98.45
1597.00,98.44
1596.00,98.43
1595.00,98.42
1594.00,98.41
1593.00,98.40
1592.00,98.38
1591.00,98.37
1590.00,98.35
1589.00,98.33
1588.00,98.30
1587.00,98.28
1586.00,98.25
1585.00,98.21
1584.00,98.17
1583.00,98.13
1582.00,98.08
1581.00,98.03
1580.00,97.98
1579.00,97.92
1578.00,97.84
1577.00,97.72
1576.00,97.55
1575.00,97.38
1574.00,97.23
1573.00,97.09
1572.00,96.92
1571.00,96.70
1570.00,96.43
1569.00,96.16
1568.00,95.96
1567.00,95.85
1566.00,95.80
1565.00,95.79
1564.00,95.82
1563.00,95.87
1562.00,95.95
1561.00,96.04
1560.00,96.15
1559.00,96.27
1558.00,96.36
1557.00,96.42
1556.00,96.47
1555.00,96.53
1554.00,96.60
1553.00,96.68
1552.00,96.76
1551.00,96.86
1550.00,96.98
1549.00,97.09
1548.00,97.19
1547.00,97.29
1546.00,97.40
1545.00,97.51
1544.00,97.59
1543.00,97.67
1542.00,97.74
1541.00,97.80
1540.00,97.85
1539.00,97.89
1538.00,97.93
1537.00,97.95
1536.00,97.97
1535.00,97.98
1534.00,98.00
1533.00,98.02
1532.00,98.02
1531.00,98.03
1530.00,98.04
1529.00,98.04
1528.00,98.04
1527.00,98.04
1526.00,98.05
1525.00,98.05
1524.00,98.04
1523.00,98.04
1522.00,98.03
1521.00,98.00
1520.00,97.98
1519.00,97.97
1518.00,97.96
1517.00,97.94
1516.00,97.91
1515.00,97.89
1514.00,97.88
1513.00,97.86
1512.00,97.84
1511.00,97.82
1510.00,97.81
1509.00,97.78
1508.00,97.73
1507.00,97.66
1506.00,97.60
1505.00,97.55
1504.00,97.52
1503.00,97.50
1502.00,97.47
1501.00,97.42
1500.00,97.36
1499.00,97.30
1498.00,97.24
1497.00,97.15
1496.00,97.04
1495.00,96.96
1494.00,96.90
1493.00,96.82
1492.00,96.73
1491.00,96.63
1490.00,96.51
1489.00,96.37
1488.00,96.23
1487.00,96.11
1486.00,96.00
1485.00,95.88
1484.00,95.76
1483.00,95.63
1482.00,95.48
1481.00,95.31
1480.00,95.14
1479.00,94.98
1478.00,94.80
1477.00,94.54
1476.00,94.24
1475.00,93.91
1474.00,93.54
1473.00,93.12
1472.00,92.77
1471.00,92.53
1470.00,92.36
1469.00,92.18
1468.00,91.97
1467.00,91.72
1466.00,91.43
1465.00,91.08
1464.00,90.76
1463.00,90.55
1462.00,90.43
1461.00,90.36
1460.00,90.31
1459.00,90.24
1458.00,90.11
1457.00,89.93
1456.00,89.82
1455.00,89.79
1454.00,89.80
1453.00,89.82
1452.00,89.83
1451.00,89.87
1450.00,89.90
1449.00,89.93
1448.00,89.95
1447.00,89.98
1446.00,90.02
1445.00,90.05
1444.00,90.08
1443.00,90.10
1442.00,90.11
1441.00,90.11
1440.00,90.11
1439.00,90.12
1438.00,90.10
1437.00,90.06
1436.00,90.01
1435.00,90.00
1434.00,90.01
1433.00,90.03
1432.00,90.03
1431.00,90.03
1430.00,90.02
1429.00,90.01
1428.00,90.01
1427.00,90.03
1426.00,90.05
1425.00,90.06
1424.00,90.06
1423.00,90.09
1422.00,90.12
1421.00,90.16
1420.00,90.19
1419.00,90.21
1418.00,90.24
1417.00,90.28
1416.00,90.34
1415.00,90.42
1414.00,90.49
1413.00,90.57
1412.00,90.64
1411.00,90.73
1410.00,90.83
1409.00,90.92
1408.00,91.02
1407.00,91.14
1406.00,91.25
1405.00,91.37
1404.00,91.51
1403.00,91.65
1402.00,91.80
1401.00,91.96
1400.00,92.14
1399.00,92.33
1398.00,92.52
1397.00,92.69
1396.00,92.88
1395.00,93.06
1394.00,93.24
1393.00,93.39
1392.00,93.53
1391.00,93.64
1390.00,93.74
1389.00,93.80
1388.00,93.83
1387.00,93.82
1386.00,93.78
1385.00,93.71
1384.00,93.63
1383.00,93.52
1382.00,93.40
1381.00,93.29
1380.00,93.18
1379.00,93.09
1378.00,93.01
1377.00,92.96
1376.00,92.92
1375.00,92.89
1374.00,92.85
1373.00,92.82
1372.00,92.81
1371.00,92.80
1370.00,92.79
1369.00,92.78
1368.00,92.77
1367.00,92.77
1366.00,92.77
1365.00,92.76
1364.00,92.73
1363.00,92.69
1362.00,92.64
1361.00,92.59
1360.00,92.54
1359.00,92.49
1358.00,92.43
1357.00,92.36
1356.00,92.29
1355.00,92.20
1354.00,92.10
1353.00,92.01
1352.00,91.91
1351.00,91.80
1350.00,91.69
1349.00,91.57
1348.00,91.45
1347.00,91.33
1346.00,91.21
1345.00,91.10
1344.00,90.99
1343.00,90.90
1342.00,90.81
1341.00,90.71
1340.00,90.61
1339.00,90.50
1338.00,90.41
1337.00,90.34
1336.00,90.29
1335.00,90.24
1334.00,90.20
1333.00,90.15
1332.00,90.11
1331.00,90.08
1330.00,90.05
1329.00,90.04
1328.00,90.04
1327.00,90.05
1326.00,90.07
1325.00,90.09
1324.00,90.12
1323.00,90.16
1322.00,90.20
1321.00,90.25
1320.00,90.30
1319.00,90.36
1318.00,90.42
1317.00,90.49
1316.00,90.55
1315.00,90.61
1314.00,90.68
1313.00,90.76
1312.00,90.84
1311.00,90.93
1310.00,91.01
1309.00,91.09
1308.00,91.15
1307.00,91.21
1306.00,91.27
1305.00,91.32
1304.00,91.39
1303.00,91.47
1302.00,91.56
1301.00,91.64
1300.00,91.72
1299.00,91.80
1298.00,91.88
1297.00,91.96
1296.00,92.04
1295.00,92.11
1294.00,92.19
1293.00,92.27
1292.00,92.35
1291.00,92.44
1290.00,92.53
1289.00,92.61
1288.00,92.67
1287.00,92.73
1286.00,92.77
1285.00,92.83
1284.00,92.89
1283.00,92.97
1282.00,93.04
1281.00,93.12
1280.00,93.18
1279.00,93.24
1278.00,93.28
1277.00,93.32
1276.00,93.35
1275.00,93.38
1274.00,93.40
1273.00,93.40
1272.00,93.40
1271.00,93.39
1270.00,93.40
1269.00,93.43
1268.00,93.50
1267.00,93.58
1266.00,93.66
1265.00,93.73
1264.00,93.78
1263.00,93.84
1262.00,93.89
1261.00,93.95
1260.00,94.01
1259.00,94.07
1258.00,94.13
1257.00,94.19
1256.00,94.24
1255.00,94.26
1254.00,94.26
1253.00,94.22
1252.00,94.17
1251.00,94.12
1250.00,94.09
1249.00,94.13
1248.00,94.23
1247.00,94.35
1246.00,94.48
1245.00,94.57
1244.00,94.65
1243.00,94.70
1242.00,94.74
1241.00,94.76
1240.00,94.78
1239.00,94.79
1238.00,94.80
1237.00,94.79
1236.00,94.77
1235.00,94.75
1234.00,94.72
1233.00,94.70
1232.00,94.69
1231.00,94.68
1230.00,94.68
1229.00,94.68
1228.00,94.67
1227.00,94.66
1226.00,94.66
1225.00,94.66
1224.00,94.67
1223.00,94.70
1222.00,94.73
1221.00,94.75
1220.00,94.77
1219.00,94.78
1218.00,94.79
1217.00,94.80
1216.00,94.81
1215.00,94.81
1214.00,94.82
1213.00,94.82
1212.00,94.83
1211.00,94.84
1210.00,94.87
1209.00,94.89
1208.00,94.93
1207.00,94.96
1206.00,94.99
1205.00,95.03
1204.00,95.07
1203.00,95.11
1202.00,95.15
1201.00,95.17
1200.00,95.20
1199.00,95.22
1198.00,95.24
1197.00,95.25
1196.00,95.27
1195.00,95.28
1194.00,95.29
1193.00,95.30
1192.00,95.30
1191.00,95.31
1190.00,95.31
1189.00,95.32
1188.00,95.33
1187.00,95.34
1186.00,95.35
1185.00,95.37
1184.00,95.38
1183.00,95.40
1182.00,95.41
1181.00,95.42
1180.00,95.43
1179.00,95.45
1178.00,95.46
1177.00,95.47
1176.00,95.48
1175.00,95.49
1174.00,95.50
1173.00,95.50
1172.00,95.50
1171.00,95.49
1170.00,95.48
1169.00,95.47
1168.00,95.46
1167.00,95.45
1166.00,95.43
1165.00,95.39
1164.00,95.35
1163.00,95.30
1162.00,95.24
1161.00,95.16
1160.00,95.06
1159.00,94.93
1158.00,94.77
1157.00,94.57
1156.00,94.33
1155.00,94.05
1154.00,93.71
1153.00,93.33
1152.00,92.89
1151.00,92.40
1150.00,91.88
1149.00,91.32
1148.00,90.73
1147.00,90.14
1146.00,89.57
1145.00,89.04
1144.00,88.57
1143.00,88.17
1142.00,87.85
1141.00,87.63
1140.00,87.50
1139.00,87.48
1138.00,87.54
1137.00,87.66
1136.00,87.81
1135.00,87.98
1134.00,88.15
1133.00,88.29
1132.00,88.40
1131.00,88.47
1130.00,88.51
1129.00,88.51
1128.00,88.48
1127.00,88.41
1126.00,88.32
1125.00,88.21
1124.00,88.09
1123.00,87.96
1122.00,87.82
1121.00,87.68
1120.00,87.56
1119.00,87.44
1118.00,87.34
1117.00,87.25
1116.00,87.17
1115.00,87.10
1114.00,87.04
1113.00,86.98
1112.00,86.92
1111.00,86.86
1110.00,86.82
1109.00,86.77
1108.00,86.70
1107.00,86.63
1106.00,86.55
1105.00,86.46
1104.00,86.36
1103.00,86.24
1102.00,86.11
1101.00,85.97
1100.00,85.81
1099.00,85.65
1098.00,85.50
1097.00,85.35
1096.00,85.19
1095.00,85.06
1094.00,84.93
1093.00,84.82
1092.00,84.72
1091.00,84.63
1090.00,84.56
1089.00,84.50
1088.00,84.44
1087.00,84.40
1086.00,84.38
1085.00,84.36
1084.00,84.36
1083.00,84.37
1082.00,84.39
1081.00,84.41
1080.00,84.43
1079.00,84.46
1078.00,84.50
1077.00,84.55
1076.00,84.59
1075.00,84.64
1074.00,84.70
1073.00,84.76
1072.00,84.83
1071.00,84.90
1070.00,84.98
1069.00,85.06
1068.00,85.14
1067.00,85.23
1066.00,85.33
1065.00,85.42
1064.00,85.52
1063.00,85.62
1062.00,85.74
1061.00,85.85
1060.00,85.96
1059.00,86.06
1058.00,86.16
1057.00,86.24
1056.00,86.32
1055.00,86.39
1054.00,86.45
1053.00,86.52
1052.00,86.56
1051.00,86.60
1050.00,86.63
1049.00,86.66
1048.00,86.68
1047.00,86.69
1046.00,86.71
1045.00,86.73
1044.00,86.75
1043.00,86.78
1042.00,86.81
1041.00,86.84
1040.00,86.87
1039.00,86.89
1038.00,86.93
1037.00,86.97
1036.00,87.02
1035.00,87.07
1034.00,87.11
1033.00,87.14
1032.00,87.17
1031.00,87.20
1030.00,87.23
1029.00,87.25
1028.00,87.27
1027.00,87.28
1026.00,87.30
1025.00,87.32
1024.00,87.35
1023.00,87.38
1022.00,87.41
1021.00,87.44
1020.00,87.48
1019.00,87.52
1018.00,87.56
1017.00,87.62
1016.00,87.68
1015.00,87.74
1014.00,87.81
1013.00,87.88
1012.00,87.96
1011.00,88.04
1010.00,88.14
1009.00,88.23
1008.00,88.32
1007.00,88.41
1006.00,88.51
1005.00,88.60
1004.00,88.69
1003.00,88.79
1002.00,88.87
1001.00,88.96
1000.00,89.03
999.00,89.11
998.00,89.18
997.00,89.26
996.00,89.33
995.00,89.39
994.00,89.45
993.00,89.51
992.00,89.57
991.00,89.62
990.00,89.68
989.00,89.75
988.00,89.82
987.00,89.90
986.00,89.99
985.00,90.07
984.00,90.15
983.00,90.23
982.00,90.32
981.00,90.41
980.00,90.49
979.00,90.58
978.00,90.67
977.00,90.76
976.00,90.85
975.00,90.94
974.00,91.04
973.00,91.14
972.00,91.23
971.00,91.32
970.00,91.41
969.00,91.50
968.00,91.59
967.00,91.67
966.00,91.75
965.00,91.82
964.00,91.89
963.00,91.95
962.00,92.02
961.00,92.08
960.00,92.14
959.00,92.19
958.00,92.25
957.00,92.30
956.00,92.35
955.00,92.40
954.00,92.45
953.00,92.49
952.00,92.52
951.00,92.55
950.00,92.57
949.00,92.57
948.00,92.56
947.00,92.55
946.00,92.55
945.00,92.56
944.00,92.59
943.00,92.62
942.00,92.66
941.00,92.70
940.00,92.73
939.00,92.76
938.00,92.77
937.00,92.77
936.00,92.76
935.00,92.75
934.00,92.74
933.00,92.73
932.00,92.71
931.00,92.69
930.00,92.67
929.00,92.65
928.00,92.63
927.00,92.61
926.00,92.59
925.00,92.56
924.00,92.53
923.00,92.51
922.00,92.48
921.00,92.45
920.00,92.41
919.00,92.37
918.00,92.33
917.00,92.30
916.00,92.27
915.00,92.24
914.00,92.21
913.00,92.18
912.00,92.15
911.00,92.14
910.00,92.12
909.00,92.11
908.00,92.09
907.00,92.07
906.00,92.05
905.00,92.03
904.00,92.00
903.00,91.98
902.00,91.95
901.00,91.93
900.00,91.90
899.00,91.88
898.00,91.86
897.00,91.85
896.00,91.83
895.00,91.81
894.00,91.80
893.00,91.78
892.00,91.77
891.00,91.76
890.00,91.76
889.00,91.77
888.00,91.79
887.00,91.83
886.00,91.87
885.00,91.91
884.00,91.94
883.00,91.97
882.00,92.01
881.00,92.05
880.00,92.09
879.00,92.12
878.00,92.16
877.00,92.19
876.00,92.23
875.00,92.27
874.00,92.31
873.00,92.32
872.00,92.32
871.00,92.30
870.00,92.26
869.00,92.17
868.00,92.05
867.00,91.87
866.00,91.66
865.00,91.40
864.00,91.12
863.00,90.81
862.00,90.49
861.00,90.16
860.00,89.82
859.00,89.48
858.00,89.14
857.00,88.80
856.00,88.46
855.00,88.13
854.00,87.82
853.00,87.54
852.00,87.28
851.00,87.04
850.00,86.85
849.00,86.68
848.00,86.54
847.00,86.44
846.00,86.38
845.00,86.35
844.00,86.33
843.00,86.33
842.00,86.34
841.00,86.35
840.00,86.35
839.00,86.34
838.00,86.32
837.00,86.29
836.00,86.25
835.00,86.20
834.00,86.17
833.00,86.14
832.00,86.11
831.00,86.08
830.00,86.05
829.00,86.04
828.00,86.03
827.00,86.05
826.00,86.09
825.00,86.16
824.00,86.25
823.00,86.39
822.00,86.55
821.00,86.75
820.00,86.96
819.00,87.19
818.00,87.43
817.00,87.66
816.00,87.89
815.00,88.12
814.00,88.36
813.00,88.62
812.00,88.87
811.00,89.12
810.00,89.37
809.00,89.60
808.00,89.81
807.00,90.02
806.00,90.22
805.00,90.38
804.00,90.53
803.00,90.65
802.00,90.77
801.00,90.87
800.00,90.95
799.00,91.02
798.00,91.08
797.00,91.13
796.00,91.17
795.00,91.21
794.00,91.24
793.00,91.25
792.00,91.25
791.00,91.25
790.00,91.25
789.00,91.24
788.00,91.23
787.00,91.22
786.00,91.20
785.00,91.17
784.00,91.13
783.00,91.07
782.00,91.02
781.00,90.97
780.00,90.93
779.00,90.90
778.00,90.87
777.00,90.84
776.00,90.80
775.00,90.75
774.00,90.72
773.00,90.70
772.00,90.68
771.00,90.64
770.00,90.60
769.00,90.56
768.00,90.51
767.00,90.46
766.00,90.40
765.00,90.35
764.00,90.29
763.00,90.23
762.00,90.19
761.00,90.14
760.00,90.08
759.00,90.02
758.00,89.95
757.00,89.88
756.00,89.80
755.00,89.73
754.00,89.66
753.00,89.59
752.00,89.50
751.00,89.41
750.00,89.33
749.00,89.25
748.00,89.16
747.00,89.08
746.00,88.99
745.00,88.89
744.00,88.79
743.00,88.69
742.00,88.61
741.00,88.53
740.00,88.46
739.00,88.40
738.00,88.35
737.00,88.29
736.00,88.23
735.00,88.15
734.00,88.08
733.00,88.01
732.00,87.91
731.00,87.79
730.00,87.68
729.00,87.58
728.00,87.50
727.00,87.45
726.00,87.41
725.00,87.36
724.00,87.32
723.00,87.27
722.00,87.22
721.00,87.16
720.00,87.13
719.00,87.14
718.00,87.20
717.00,87.26
716.00,87.29
715.00,87.29
714.00,87.28
713.00,87.27
712.00,87.26
711.00,87.23
710.00,87.20
709.00,87.13
708.00,87.05
707.00,86.97
706.00,86.90
705.00,86.85
704.00,86.80
703.00,86.76
702.00,86.74
701.00,86.73
700.00,86.73
699.00,86.73
698.00,86.72
697.00,86.68
696.00,86.63
695.00,86.59
694.00,86.57
693.00,86.56
692.00,86.52
691.00,86.48
690.00,86.45
689.00,86.42
688.00,86.39
687.00,86.37
686.00,86.34
685.00,86.29
684.00,86.23
683.00,86.19
682.00,86.17
681.00,86.14
680.00,86.12
679.00,86.09
678.00,86.05
677.00,85.99
676.00,85.93
675.00,85.89
674.00,85.89
673.00,85.89
672.00,85.89
671.00,85.91
670.00,85.94
669.00,85.90
668.00,85.74
667.00,85.58
666.00,85.49
665.00,85.43
664.00,85.37
663.00,85.32
662.00,85.30
661.00,85.30
660.00,85.28
659.00,85.25
658.00,85.20
657.00,85.15
656.00,85.10
655.00,85.07
654.00,85.06
653.00,85.02
652.00,84.94
651.00,84.86
650.00,84.81
