Created as New Dataset,EVOH (44mol% ethylene) Soarnol
cm-1,%T
4000.00,98.53
3999.00,98.53
3998.00,98.54
3997.00,98.54
3996.00,98.54
3995.00,98.54
3994.00,98.54
3993.00,98.54
3992.00,98.54
3991.00,98.54
3990.00,98.55
3989.00,98.55
3988.00,98.55
3987.00,98.54
3986.00,98.54
3985.00,98.54
3984.00,98.53
3983.00,98.54
3982.00,98.54
3981.00,98.54
3980.00,98.54
3979.00,98.54
3978.00,98.54
3977.00,98.54
3976.00,98.54
3975.00,98.54
3974.00,98.53
3973.00,98.53
3972.00,98.53
3971.00,98.54
3970.00,98.54
3969.00,98.54
3968.00,98.54
3967.00,98.54
3966.00,98.54
3965.00,98.54
3964.00,98.54
3963.00,98.54
3962.00,98.54
3961.00,98.54
3960.00,98.54
3959.00,98.54
3958.00,98.55
3957.00,98.55
3956.00,98.55
3955.00,98.55
3954.00,98.55
3953.00,98.54
3952.00,98.54
3951.00,98.54
3950.00,98.54
3949.00,98.55
3948.00,98.55
3947.00,98.55
3946.00,98.55
3945.00,98.55
3944.00,98.55
3943.00,98.55
3942.00,98.55
3941.00,98.55
3940.00,98.55
3939.00,98.55
3938.00,98.55
3937.00,98.55
3936.00,98.55
3935.00,98.55
3934.00,98.55
3933.00,98.55
3932.00,98.55
3931.00,98.55
3930.00,98.55
3929.00,98.55
3928.00,98.55
3927.00,98.54
3926.00,98.54
3925.00,98.55
3924.00,98.55
3923.00,98.55
3922.00,98.55
3921.00,98.55
3920.00,98.55
3919.00,98.55
3918.00,98.55
3917.00,98.56
3916.00,98.56
3915.00,98.56
3914.00,98.56
3913.00,98.56
3912.00,98.56
3911.00,98.55
3910.00,98.55
3909.00,98.55
3908.00,98.54
3907.00,98.54
3906.00,98.54
3905.00,98.53
3904.00,98.53
3903.00,98.53
3902.00,98.54
3901.00,98.54
3900.00,98.55
3899.00,98.55
3898.00,98.55
3897.00,98.55
3896.00,98.55
3895.00,98.55
3894.00,98.56
3893.00,98.56
3892.00,98.56
3891.00,98.56
3890.00,98.55
3889.00,98.55
3888.00,98.55
3887.00,98.55
3886.00,98.55
3885.00,98.56
3884.00,98.56
3883.00,98.55
3882.00,98.55
3881.00,98.55
3880.00,98.55
3879.00,98.55
3878.00,98.55
3877.00,98.55
3876.00,98.55
3875.00,98.55
3874.00,98.55
3873.00,98.55
3872.00,98.54
3871.00,98.54
3870.00,98.54
3869.00,98.54
3868.00,98.54
3867.00,98.54
3866.00,98.54
3865.00,98.54
3864.00,98.55
3863.00,98.55
3862.00,98.55
3861.00,98.55
3860.00,98.55
3859.00,98.55
3858.00,98.56
3857.00,98.56
3856.00,98.56
3855.00,98.56
3854.00,98.56
3853.00,98.56
3852.00,98.56
3851.00,98.55
3850.00,98.55
3849.00,98.55
3848.00,98.54
3847.00,98.54
3846.00,98.54
3845.00,98.54
3844.00,98.54
3843.00,98.54
3842.00,98.55
3841.00,98.55
3840.00,98.55
3839.00,98.54
3838.00,98.55
3837.00,98.55
3836.00,98.55
3835.00,98.55
3834.00,98.55
3833.00,98.55
3832.00,98.54
3831.00,98.54
3830.00,98.54
3829.00,98.54
3828.00,98.54
3827.00,98.54
3826.00,98.54
3825.00,98.54
3824.00,98.54
3823.00,98.53
3822.00,98.54
3821.00,98.54
3820.00,98.54
3819.00,98.54
3818.00,98.54
3817.00,98.55
3816.00,98.55
3815.00,98.56
3814.00,98.55
3813.00,98.55
3812.00,98.55
3811.00,98.55
3810.00,98.54
3809.00,98.54
3808.00,98.53
3807.00,98.53
3806.00,98.53
3805.00,98.53
3804.00,98.53
3803.00,98.53
3802.00,98.53
3801.00,98.54
3800.00,98.54
3799.00,98.54
3798.00,98.53
3797.00,98.53
3796.00,98.53
3795.00,98.54
3794.00,98.54
3793.00,98.54
3792.00,98.54
3791.00,98.53
3790.00,98.53
3789.00,98.53
3788.00,98.53
3787.00,98.52
3786.00,98.52
3785.00,98.52
3784.00,98.52
3783.00,98.52
3782.00,98.52
3781.00,98.53
3780.00,98.53
3779.00,98.54
3778.00,98.54
3777.00,98.53
3776.00,98.53
3775.00,98.52
3774.00,98.52
3773.00,98.52
3772.00,98.52
3771.00,98.52
3770.00,98.52
3769.00,98.52
3768.00,98.52
3767.00,98.52
3766.00,98.52
3765.00,98.52
3764.00,98.52
3763.00,98.52
3762.00,98.51
3761.00,98.51
3760.00,98.51
3759.00,98.51
3758.00,98.51
3757.00,98.51
3756.00,98.51
3755.00,98.51
3754.00,98.51
3753.00,98.51
3752.00,98.51
3751.00,98.50
3750.00,98.50
3749.00,98.49
3748.00,98.49
3747.00,98.49
3746.00,98.49
3745.00,98.50
3744.00,98.50
3743.00,98.50
3742.00,98.50
3741.00,98.50
3740.00,98.50
3739.00,98.49
3738.00,98.49
3737.00,98.49
3736.00,98.49
3735.00,98.50
3734.00,98.51
3733.00,98.52
3732.00,98.52
3731.00,98.53
3730.00,98.53
3729.00,98.52
3728.00,98.51
3727.00,98.50
3726.00,98.50
3725.00,98.50
3724.00,98.51
3723.00,98.51
3722.00,98.51
3721.00,98.52
3720.00,98.52
3719.00,98.51
3718.00,98.51
3717.00,98.51
3716.00,98.51
3715.00,98.51
3714.00,98.51
3713.00,98.51
3712.00,98.52
3711.00,98.52
3710.00,98.52
3709.00,98.52
3708.00,98.52
3707.00,98.52
3706.00,98.52
3705.00,98.52
3704.00,98.52
3703.00,98.52
3702.00,98.52
3701.00,98.53
3700.00,98.53
3699.00,98.53
3698.00,98.53
3697.00,98.53
3696.00,98.53
3695.00,98.52
3694.00,98.52
3693.00,98.51
3692.00,98.51
3691.00,98.52
3690.00,98.51
3689.00,98.51
3688.00,98.51
3687.00,98.50
3686.00,98.49
3685.00,98.49
3684.00,98.48
3683.00,98.47
3682.00,98.47
3681.00,98.46
3680.00,98.45
3679.00,98.44
3678.00,98.43
3677.00,98.41
3676.00,98.41
3675.00,98.40
3674.00,98.40
3673.00,98.39
3672.00,98.38
3671.00,98.38
3670.00,98.38
3669.00,98.39
3668.00,98.39
3667.00,98.39
3666.00,98.39
3665.00,98.39
3664.00,98.39
3663.00,98.39
3662.00,98.40
3661.00,98.40
3660.00,98.39
3659.00,98.38
3658.00,98.37
3657.00,98.36
3656.00,98.35
3655.00,98.34
3654.00,98.33
3653.00,98.33
3652.00,98.32
3651.00,98.32
3650.00,98.32
3649.00,98.31
3648.00,98.30
3647.00,98.29
3646.00,98.28
3645.00,98.28
3644.00,98.28
3643.00,98.27
3642.00,98.27
3641.00,98.26
3640.00,98.24
3639.00,98.22
3638.00,98.20
3637.00,98.18
3636.00,98.16
3635.00,98.13
3634.00,98.11
3633.00,98.09
3632.00,98.07
3631.00,98.04
3630.00,98.02
3629.00,97.99
3628.00,97.98
3627.00,97.96
3626.00,97.94
3625.00,97.93
3624.00,97.91
3623.00,97.89
3622.00,97.88
3621.00,97.86
3620.00,97.84
3619.00,97.83
3618.00,97.81
3617.00,97.79
3616.00,97.77
3615.00,97.76
3614.00,97.75
3613.00,97.73
3612.00,97.72
3611.00,97.70
3610.00,97.68
3609.00,97.66
3608.00,97.65
3607.00,97.63
3606.00,97.62
3605.00,97.60
3604.00,97.58
3603.00,97.57
3602.00,97.55
3601.00,97.52
3600.00,97.50
3599.00,97.47
3598.00,97.45
3597.00,97.43
3596.00,97.41
3595.00,97.40
3594.00,97.38
3593.00,97.36
3592.00,97.34
3591.00,97.31
3590.00,97.29
3589.00,97.27
3588.00,97.26
3587.00,97.24
3586.00,97.22
3585.00,97.20
3584.00,97.18
3583.00,97.15
3582.00,97.13
3581.00,97.10
3580.00,97.07
3579.00,97.04
3578.00,97.01
3577.00,96.98
3576.00,96.95
3575.00,96.92
3574.00,96.88
3573.00,96.85
3572.00,96.81
3571.00,96.78
3570.00,96.74
3569.00,96.70
3568.00,96.65
3567.00,96.61
3566.00,96.57
3565.00,96.53
3564.00,96.49
3563.00,96.46
3562.00,96.42
3561.00,96.38
3560.00,96.34
3559.00,96.30
3558.00,96.26
3557.00,96.21
3556.00,96.16
3555.00,96.11
3554.00,96.06
3553.00,96.01
3552.00,95.96
3551.00,95.90
3550.00,95.85
3549.00,95.80
3548.00,95.74
3547.00,95.69
3546.00,95.64
3545.00,95.58
3544.00,95.53
3543.00,95.47
3542.00,95.42
3541.00,95.36
3540.00,95.30
3539.00,95.24
3538.00,95.18
3537.00,95.12
3536.00,95.06
3535.00,94.99
3534.00,94.93
3533.00,94.87
3532.00,94.81
3531.00,94.74
3530.00,94.68
3529.00,94.61
3528.00,94.54
3527.00,94.47
3526.00,94.40
3525.00,94.33
3524.00,94.25
3523.00,94.18
3522.00,94.11
3521.00,94.05
3520.00,93.99
3519.00,93.92
3518.00,93.85
3517.00,93.77
3516.00,93.70
3515.00,93.63
3514.00,93.55
3513.00,93.48
3512.00,93.40
3511.00,93.32
3510.00,93.24
3509.00,93.16
3508.00,93.08
3507.00,93.00
3506.00,92.93
3505.00,92.85
3504.00,92.77
3503.00,92.69
3502.00,92.61
3501.00,92.53
3500.00,92.45
3499.00,92.38
3498.00,92.30
3497.00,92.22
3496.00,92.13
3495.00,92.05
3494.00,91.97
3493.00,91.89
3492.00,91.81
3491.00,91.73
3490.00,91.65
3489.00,91.57
3488.00,91.48
3487.00,91.40
3486.00,91.32
3485.00,91.23
3484.00,91.15
3483.00,91.06
3482.00,90.98
3481.00,90.89
3480.00,90.81
3479.00,90.73
3478.00,90.65
3477.00,90.57
3476.00,90.49
3475.00,90.40
3474.00,90.32
3473.00,90.23
3472.00,90.14
3471.00,90.06
3470.00,89.97
3469.00,89.88
3468.00,89.79
3467.00,89.71
3466.00,89.62
3465.00,89.54
3464.00,89.45
3463.00,89.37
3462.00,89.28
3461.00,89.20
3460.00,89.11
3459.00,89.02
3458.00,88.94
3457.00,88.85
3456.00,88.76
3455.00,88.68
3454.00,88.59
3453.00,88.50
3452.00,88.41
3451.00,88.33
3450.00,88.24
3449.00,88.15
3448.00,88.06
3447.00,87.96
3446.00,87.87
3445.00,87.79
3444.00,87.70
3443.00,87.62
3442.00,87.53
3441.00,87.45
3440.00,87.36
3439.00,87.27
3438.00,87.18
3437.00,87.09
3436.00,87.00
3435.00,86.92
3434.00,86.83
3433.00,86.74
3432.00,86.65
3431.00,86.56
3430.00,86.47
3429.00,86.39
3428.00,86.30
3427.00,86.22
3426.00,86.14
3425.00,86.06
3424.00,85.97
3423.00,85.89
3422.00,85.80
3421.00,85.71
3420.00,85.63
3419.00,85.55
3418.00,85.46
3417.00,85.38
3416.00,85.30
3415.00,85.22
3414.00,85.14
3413.00,85.06
3412.00,84.98
3411.00,84.90
3410.00,84.82
3409.00,84.74
3408.00,84.66
3407.00,84.58
3406.00,84.50
3405.00,84.42
3404.00,84.35
3403.00,84.27
3402.00,84.19
3401.00,84.11
3400.00,84.03
3399.00,83.96
3398.00,83.89
3397.00,83.82
3396.00,83.75
3395.00,83.67
3394.00,83.60
3393.00,83.53
3392.00,83.46
3391.00,83.40
3390.00,83.34
3389.00,83.28
3388.00,83.21
3387.00,83.15
3386.00,83.08
3385.00,83.01
3384.00,82.94
3383.00,82.88
3382.00,82.82
3381.00,82.76
3380.00,82.70
3379.00,82.64
3378.00,82.58
3377.00,82.52
3376.00,82.46
3375.00,82.41
3374.00,82.35
3373.00,82.29
3372.00,82.24
3371.00,82.18
3370.00,82.12
3369.00,82.07
3368.00,82.01
3367.00,81.96
3366.00,81.91
3365.00,81.86
3364.00,81.81
3363.00,81.77
3362.00,81.72
3361.00,81.68
3360.00,81.64
3359.00,81.60
3358.00,81.56
3357.00,81.52
3356.00,81.47
3355.00,81.43
3354.00,81.39
3353.00,81.35
3352.00,81.32
3351.00,81.28
3350.00,81.24
3349.00,81.21
3348.00,81.18
3347.00,81.14
3346.00,81.11
3345.00,81.07
3344.00,81.04
3343.00,81.00
3342.00,80.97
3341.00,80.95
3340.00,80.92
3339.00,80.90
3338.00,80.87
3337.00,80.85
3336.00,80.82
3335.00,80.80
3334.00,80.78
3333.00,80.76
3332.00,80.74
3331.00,80.72
3330.00,80.70
3329.00,80.68
3328.00,80.66
3327.00,80.65
3326.00,80.63
3325.00,80.61
3324.00,80.60
3323.00,80.59
3322.00,80.57
3321.00,80.57
3320.00,80.56
3319.00,80.55
3318.00,80.54
3317.00,80.54
3316.00,80.53
3315.00,80.53
3314.00,80.52
3313.00,80.52
3312.00,80.51
3311.00,80.50
3310.00,80.50
3309.00,80.49
3308.00,80.49
3307.00,80.49
3306.00,80.49
3305.00,80.50
3304.00,80.50
3303.00,80.51
3302.00,80.52
3301.00,80.53
3300.00,80.54
3299.00,80.54
3298.00,80.55
3297.00,80.56
3296.00,80.57
3295.00,80.59
3294.00,80.60
3293.00,80.62
3292.00,80.64
3291.00,80.66
3290.00,80.68
3289.00,80.70
3288.00,80.71
3287.00,80.73
3286.00,80.75
3285.00,80.77
3284.00,80.80
3283.00,80.82
3282.00,80.84
3281.00,80.86
3280.00,80.89
3279.00,80.92
3278.00,80.95
3277.00,80.97
3276.00,81.00
3275.00,81.03
3274.00,81.06
3273.00,81.09
3272.00,81.12
3271.00,81.15
3270.00,81.19
3269.00,81.23
3268.00,81.27
3267.00,81.31
3266.00,81.34
3265.00,81.38
3264.00,81.41
3263.00,81.46
3262.00,81.50
3261.00,81.54
3260.00,81.59
3259.00,81.63
3258.00,81.68
3257.00,81.72
3256.00,81.76
3255.00,81.80
3254.00,81.85
3253.00,81.89
3252.00,81.94
3251.00,82.00
3250.00,82.05
3249.00,82.10
3248.00,82.15
3247.00,82.20
3246.00,82.25
3245.00,82.31
3244.00,82.37
3243.00,82.43
3242.00,82.49
3241.00,82.55
3240.00,82.61
3239.00,82.67
3238.00,82.72
3237.00,82.78
3236.00,82.83
3235.00,82.89
3234.00,82.95
3233.00,83.02
3232.00,83.08
3231.00,83.14
3230.00,83.20
3229.00,83.27
3228.00,83.33
3227.00,83.40
3226.00,83.47
3225.00,83.54
3224.00,83.61
3223.00,83.68
3222.00,83.74
3221.00,83.81
3220.00,83.88
3219.00,83.94
3218.00,84.01
3217.00,84.08
3216.00,84.16
3215.00,84.23
3214.00,84.30
3213.00,84.37
3212.00,84.44
3211.00,84.51
3210.00,84.59
3209.00,84.66
3208.00,84.74
3207.00,84.82
3206.00,84.89
3205.00,84.96
3204.00,85.03
3203.00,85.11
3202.00,85.19
3201.00,85.27
3200.00,85.34
3199.00,85.43
3198.00,85.51
3197.00,85.59
3196.00,85.67
3195.00,85.75
3194.00,85.82
3193.00,85.90
3192.00,85.98
3191.00,86.06
3190.00,86.14
3189.00,86.22
3188.00,86.30
3187.00,86.38
3186.00,86.46
3185.00,86.54
3184.00,86.62
3183.00,86.70
3182.00,86.77
3181.00,86.85
3180.00,86.93
3179.00,87.01
3178.00,87.09
3177.00,87.17
3176.00,87.25
3175.00,87.33
3174.00,87.41
3173.00,87.49
3172.00,87.57
3171.00,87.65
3170.00,87.73
3169.00,87.81
3168.00,87.88
3167.00,87.96
3166.00,88.04
3165.00,88.12
3164.00,88.20
3163.00,88.28
3162.00,88.36
3161.00,88.43
3160.00,88.51
3159.00,88.59
3158.00,88.66
3157.00,88.74
3156.00,88.82
3155.00,88.89
3154.00,88.97
3153.00,89.04
3152.00,89.12
3151.00,89.19
3150.00,89.26
3149.00,89.34
3148.00,89.41
3147.00,89.48
3146.00,89.56
3145.00,89.63
3144.00,89.71
3143.00,89.78
3142.00,89.86
3141.00,89.92
3140.00,89.99
3139.00,90.06
3138.00,90.12
3137.00,90.19
3136.00,90.26
3135.00,90.34
3134.00,90.40
3133.00,90.47
3132.00,90.54
3131.00,90.61
3130.00,90.68
3129.00,90.74
3128.00,90.81
3127.00,90.88
3126.00,90.94
3125.00,91.01
3124.00,91.07
3123.00,91.14
3122.00,91.20
3121.00,91.26
3120.00,91.32
3119.00,91.38
3118.00,91.45
3117.00,91.51
3116.00,91.57
3115.00,91.63
3114.00,91.69
3113.00,91.75
3112.00,91.81
3111.00,91.87
3110.00,91.93
3109.00,91.99
3108.00,92.04
3107.00,92.10
3106.00,92.15
3105.00,92.21
3104.00,92.26
3103.00,92.32
3102.00,92.37
3101.00,92.43
3100.00,92.48
3099.00,92.53
3098.00,92.58
3097.00,92.63
3096.00,92.69
3095.00,92.74
3094.00,92.80
3093.00,92.85
3092.00,92.90
3091.00,92.95
3090.00,92.99
3089.00,93.04
3088.00,93.09
3087.00,93.13
3086.00,93.18
3085.00,93.23
3084.00,93.27
3083.00,93.32
3082.00,93.36
3081.00,93.41
3080.00,93.45
3079.00,93.50
3078.00,93.54
3077.00,93.59
3076.00,93.63
3075.00,93.67
3074.00,93.71
3073.00,93.75
3072.00,93.79
3071.00,93.83
3070.00,93.88
3069.00,93.92
3068.00,93.96
3067.00,94.00
3066.00,94.03
3065.00,94.07
3064.00,94.11
3063.00,94.15
3062.00,94.19
3061.00,94.22
3060.00,94.26
3059.00,94.30
3058.00,94.33
3057.00,94.37
3056.00,94.40
3055.00,94.43
3054.00,94.47
3053.00,94.50
3052.00,94.53
3051.00,94.56
3050.00,94.60
3049.00,94.63
3048.00,94.66
3047.00,94.69
3046.00,94.72
3045.00,94.75
3044.00,94.78
3043.00,94.81
3042.00,94.84
3041.00,94.86
3040.00,94.89
3039.00,94.92
3038.00,94.96
3037.00,94.99
3036.00,95.01
3035.00,95.04
3034.00,95.07
3033.00,95.09
3032.00,95.11
3031.00,95.14
3030.00,95.16
3029.00,95.18
3028.00,95.21
3027.00,95.23
3026.00,95.26
3025.00,95.28
3024.00,95.30
3023.00,95.32
3022.00,95.34
3021.00,95.37
3020.00,95.39
3019.00,95.41
3018.00,95.43
3017.00,95.44
3016.00,95.46
3015.00,95.48
3014.00,95.49
3013.00,95.51
3012.00,95.53
3011.00,95.55
3010.00,95.57
3009.00,95.58
3008.00,95.59
3007.00,95.60
3006.00,95.61
3005.00,95.63
3004.00,95.64
3003.00,95.65
3002.00,95.66
3001.00,95.67
3000.00,95.68
2999.00,95.68
2998.00,95.69
2997.00,95.70
2996.00,95.70
2995.00,95.70
2994.00,95.70
2993.00,95.70
2992.00,95.69
2991.00,95.68
2990.00,95.66
2989.00,95.64
2988.00,95.63
2987.00,95.61
2986.00,95.59
2985.00,95.56
2984.00,95.53
2983.00,95.49
2982.00,95.45
2981.00,95.40
2980.00,95.34
2979.00,95.28
2978.00,95.21
2977.00,95.13
2976.00,95.05
2975.00,94.95
2974.00,94.84
2973.00,94.72
2972.00,94.58
2971.00,94.43
2970.00,94.26
2969.00,94.07
2968.00,93.86
2967.00,93.64
2966.00,93.38
2965.00,93.11
2964.00,92.81
2963.00,92.49
2962.00,92.14
2961.00,91.76
2960.00,91.37
2959.00,90.94
2958.00,90.49
2957.00,90.01
2956.00,89.50
2955.00,88.97
2954.00,88.40
2953.00,87.80
2952.00,87.18
2951.00,86.52
2950.00,85.84
2949.00,85.13
2948.00,84.40
2947.00,83.65
2946.00,82.89
2945.00,82.11
2944.00,81.33
2943.00,80.55
2942.00,79.78
2941.00,79.03
2940.00,78.31
2939.00,77.62
2938.00,76.97
2937.00,76.36
2936.00,75.80
2935.00,75.29
2934.00,74.82
2933.00,74.41
2932.00,74.06
2931.00,73.76
2930.00,73.51
2929.00,73.31
2928.00,73.17
2927.00,73.07
2926.00,73.02
2925.00,73.02
2924.00,73.06
2923.00,73.13
2922.00,73.23
2921.00,73.34
2920.00,73.47
2919.00,73.61
2918.00,73.74
2917.00,73.86
2916.00,73.96
2915.00,74.04
2914.00,74.10
2913.00,74.13
2912.00,74.15
2911.00,74.16
2910.00,74.17
2909.00,74.19
2908.00,74.23
2907.00,74.30
2906.00,74.42
2905.00,74.58
2904.00,74.80
2903.00,75.07
2902.00,75.41
2901.00,75.81
2900.00,76.26
2899.00,76.76
2898.00,77.30
2897.00,77.86
2896.00,78.44
2895.00,79.02
2894.00,79.61
2893.00,80.18
2892.00,80.73
2891.00,81.25
2890.00,81.74
2889.00,82.20
2888.00,82.62
2887.00,83.00
2886.00,83.35
2885.00,83.66
2884.00,83.94
2883.00,84.19
2882.00,84.40
2881.00,84.58
2880.00,84.73
2879.00,84.85
2878.00,84.94
2877.00,85.00
2876.00,85.03
2875.00,85.02
2874.00,84.98
2873.00,84.91
2872.00,84.81
2871.00,84.68
2870.00,84.51
2869.00,84.32
2868.00,84.09
2867.00,83.83
2866.00,83.54
2865.00,83.21
2864.00,82.85
2863.00,82.47
2862.00,82.05
2861.00,81.62
2860.00,81.17
2859.00,80.72
2858.00,80.28
2857.00,79.87
2856.00,79.50
2855.00,79.19
2854.00,78.96
2853.00,78.82
2852.00,78.80
2851.00,78.89
2850.00,79.11
2849.00,79.43
2848.00,79.83
2847.00,80.31
2846.00,80.84
2845.00,81.39
2844.00,81.95
2843.00,82.52
2842.00,83.07
2841.00,83.60
2840.00,84.11
2839.00,84.59
2838.00,85.05
2837.00,85.48
2836.00,85.88
2835.00,86.27
2834.00,86.64
2833.00,87.00
2832.00,87.35
2831.00,87.69
2830.00,88.01
2829.00,88.32
2828.00,88.61
2827.00,88.89
2826.00,89.15
2825.00,89.40
2824.00,89.63
2823.00,89.85
2822.00,90.06
2821.00,90.25
2820.00,90.43
2819.00,90.60
2818.00,90.76
2817.00,90.91
2816.00,91.06
2815.00,91.21
2814.00,91.35
2813.00,91.49
2812.00,91.62
2811.00,91.75
2810.00,91.87
2809.00,91.99
2808.00,92.11
2807.00,92.22
2806.00,92.33
2805.00,92.44
2804.00,92.54
2803.00,92.64
2802.00,92.73
2801.00,92.82
2800.00,92.91
2799.00,93.00
2798.00,93.08
2797.00,93.15
2796.00,93.22
2795.00,93.29
2794.00,93.36
2793.00,93.43
2792.00,93.49
2791.00,93.55
2790.00,93.61
2789.00,93.66
2788.00,93.71
2787.00,93.76
2786.00,93.81
2785.00,93.85
2784.00,93.90
2783.00,93.94
2782.00,93.98
2781.00,94.02
2780.00,94.06
2779.00,94.10
2778.00,94.13
2777.00,94.17
2776.00,94.20
2775.00,94.23
2774.00,94.25
2773.00,94.28
2772.00,94.30
2771.00,94.33
2770.00,94.35
2769.00,94.38
2768.00,94.40
2767.00,94.41
2766.00,94.43
2765.00,94.45
2764.00,94.46
2763.00,94.48
2762.00,94.50
2761.00,94.51
2760.00,94.52
2759.00,94.53
2758.00,94.55
2757.00,94.56
2756.00,94.57
2755.00,94.59
2754.00,94.60
2753.00,94.61
2752.00,94.62
2751.00,94.63
2750.00,94.64
2749.00,94.64
2748.00,94.65
2747.00,94.67
2746.00,94.68
2745.00,94.69
2744.00,94.70
2743.00,94.71
2742.00,94.72
2741.00,94.74
2740.00,94.75
2739.00,94.76
2738.00,94.77
2737.00,94.78
2736.00,94.80
2735.00,94.81
2734.00,94.82
2733.00,94.83
2732.00,94.85
2731.00,94.86
2730.00,94.87
2729.00,94.89
2728.00,94.90
2727.00,94.92
2726.00,94.93
2725.00,94.94
2724.00,94.96
2723.00,94.97
2722.00,94.99
2721.00,95.00
2720.00,95.01
2719.00,95.02
2718.00,95.03
2717.00,95.04
2716.00,95.05
2715.00,95.06
2714.00,95.07
2713.00,95.07
2712.00,95.08
2711.00,95.09
2710.00,95.10
2709.00,95.11
2708.00,95.11
2707.00,95.12
2706.00,95.12
2705.00,95.13
2704.00,95.13
2703.00,95.14
2702.00,95.14
2701.00,95.14
2700.00,95.14
2699.00,95.14
2698.00,95.14
2697.00,95.14
2696.00,95.14
2695.00,95.14
2694.00,95.14
2693.00,95.14
2692.00,95.14
2691.00,95.14
2690.00,95.14
2689.00,95.15
2688.00,95.15
2687.00,95.15
2686.00,95.16
2685.00,95.16
2684.00,95.17
2683.00,95.18
2682.00,95.19
2681.00,95.20
2680.00,95.20
2679.00,95.21
2678.00,95.21
2677.00,95.22
2676.00,95.23
2675.00,95.24
2674.00,95.24
2673.00,95.25
2672.00,95.26
2671.00,95.27
2670.00,95.28
2669.00,95.29
2668.00,95.30
2667.00,95.31
2666.00,95.32
2665.00,95.32
2664.00,95.32
2663.00,95.32
2662.00,95.32
2661.00,95.32
2660.00,95.32
2659.00,95.32
2658.00,95.33
2657.00,95.33
2656.00,95.34
2655.00,95.34
2654.00,95.35
2653.00,95.36
2652.00,95.37
2651.00,95.38
2650.00,95.39
2649.00,95.40
2648.00,95.41
2647.00,95.42
2646.00,95.43
2645.00,95.44
2644.00,95.45
2643.00,95.46
2642.00,95.47
2641.00,95.48
2640.00,95.49
2639.00,95.50
2638.00,95.51
2637.00,95.52
2636.00,95.54
2635.00,95.55
2634.00,95.56
2633.00,95.57
2632.00,95.58
2631.00,95.59
2630.00,95.60
2629.00,95.61
2628.00,95.62
2627.00,95.64
2626.00,95.65
2625.00,95.66
2624.00,95.67
2623.00,95.69
2622.00,95.70
2621.00,95.71
2620.00,95.73
2619.00,95.74
2618.00,95.75
2617.00,95.76
2616.00,95.77
2615.00,95.78
2614.00,95.80
2613.00,95.81
2612.00,95.82
2611.00,95.83
2610.00,95.84
2609.00,95.86
2608.00,95.87
2607.00,95.88
2606.00,95.89
2605.00,95.90
2604.00,95.91
2603.00,95.92
2602.00,95.94
2601.00,95.94
2600.00,95.96
2599.00,95.97
2598.00,95.98
2597.00,95.99
2596.00,96.00
2595.00,96.01
2594.00,96.02
2593.00,96.03
2592.00,96.04
2591.00,96.05
2590.00,96.06
2589.00,96.07
2588.00,96.08
2587.00,96.08
2586.00,96.09
2585.00,96.10
2584.00,96.11
2583.00,96.12
2582.00,96.14
2581.00,96.15
2580.00,96.16
2579.00,96.16
2578.00,96.17
2577.00,96.18
2576.00,96.18
2575.00,96.19
2574.00,96.20
2573.00,96.21
2572.00,96.22
2571.00,96.23
2570.00,96.24
2569.00,96.25
2568.00,96.25
2567.00,96.26
2566.00,96.26
2565.00,96.27
2564.00,96.28
2563.00,96.29
2562.00,96.29
2561.00,96.30
2560.00,96.30
2559.00,96.31
2558.00,96.31
2557.00,96.32
2556.00,96.33
2555.00,96.34
2554.00,96.34
2553.00,96.35
2552.00,96.35
2551.00,96.36
2550.00,96.37
2549.00,96.37
2548.00,96.38
2547.00,96.39
2546.00,96.39
2545.00,96.40
2544.00,96.40
2543.00,96.39
2542.00,96.40
2541.00,96.40
2540.00,96.41
2539.00,96.41
2538.00,96.42
2537.00,96.43
2536.00,96.44
2535.00,96.45
2534.00,96.45
2533.00,96.45
2532.00,96.45
2531.00,96.45
2530.00,96.45
2529.00,96.46
2528.00,96.46
2527.00,96.47
2526.00,96.48
2525.00,96.49
2524.00,96.50
2523.00,96.50
2522.00,96.50
2521.00,96.51
2520.00,96.51
2519.00,96.52
2518.00,96.53
2517.00,96.53
2516.00,96.54
2515.00,96.55
2514.00,96.56
2513.00,96.56
2512.00,96.57
2511.00,96.57
2510.00,96.58
2509.00,96.59
2508.00,96.59
2507.00,96.60
2506.00,96.60
2505.00,96.61
2504.00,96.61
2503.00,96.61
2502.00,96.62
2501.00,96.63
2500.00,96.64
2499.00,96.65
2498.00,96.66
2497.00,96.66
2496.00,96.66
2495.00,96.67
2494.00,96.67
2493.00,96.67
2492.00,96.68
2491.00,96.69
2490.00,96.70
2489.00,96.70
2488.00,96.71
2487.00,96.72
2486.00,96.72
2485.00,96.73
2484.00,96.73
2483.00,96.74
2482.00,96.75
2481.00,96.75
2480.00,96.76
2479.00,96.77
2478.00,96.78
2477.00,96.78
2476.00,96.79
2475.00,96.79
2474.00,96.79
2473.00,96.79
2472.00,96.79
2471.00,96.80
2470.00,96.81
2469.00,96.82
2468.00,96.82
2467.00,96.81
2466.00,96.81
2465.00,96.81
2464.00,96.81
2463.00,96.81
2462.00,96.81
2461.00,96.81
2460.00,96.81
2459.00,96.81
2458.00,96.81
2457.00,96.81
2456.00,96.80
2455.00,96.80
2454.00,96.81
2453.00,96.81
2452.00,96.81
2451.00,96.82
2450.00,96.82
2449.00,96.82
2448.00,96.83
2447.00,96.83
2446.00,96.84
2445.00,96.84
2444.00,96.85
2443.00,96.85
2442.00,96.86
2441.00,96.87
2440.00,96.87
2439.00,96.87
2438.00,96.88
2437.00,96.88
2436.00,96.89
2435.00,96.89
2434.00,96.90
2433.00,96.90
2432.00,96.91
2431.00,96.91
2430.00,96.91
2429.00,96.92
2428.00,96.92
2427.00,96.93
2426.00,96.94
2425.00,96.94
2424.00,96.94
2423.00,96.95
2422.00,96.95
2421.00,96.95
2420.00,96.95
2419.00,96.96
2418.00,96.96
2417.00,96.97
2416.00,96.98
2415.00,96.98
2414.00,96.98
2413.00,96.99
2412.00,96.99
2411.00,97.00
2410.00,97.00
2409.00,97.00
2408.00,97.01
2407.00,97.02
2406.00,97.03
2405.00,97.04
2404.00,97.05
2403.00,97.05
2402.00,97.05
2401.00,97.05
2400.00,97.05
2399.00,97.05
2398.00,97.06
2397.00,97.07
2396.00,97.07
2395.00,97.08
2394.00,97.09
2393.00,97.09
2392.00,97.09
2391.00,97.10
2390.00,97.10
2389.00,97.11
2388.00,97.11
2387.00,97.12
2386.00,97.12
2385.00,97.13
2384.00,97.14
2383.00,97.14
2382.00,97.15
2381.00,97.15
2380.00,97.16
2379.00,97.17
2378.00,97.17
2377.00,97.18
2376.00,97.18
2375.00,97.17
2374.00,97.17
2373.00,97.17
2372.00,97.17
2371.00,97.17
2370.00,97.17
2369.00,97.18
2368.00,97.17
2367.00,97.17
2366.00,97.17
2365.00,97.18
2364.00,97.18
2363.00,97.19
2362.00,97.19
2361.00,97.19
2360.00,97.17
2359.00,97.15
2358.00,97.14
2357.00,97.15
2356.00,97.16
2355.00,97.18
2354.00,97.18
2353.00,97.17
2352.00,97.17
2351.00,97.16
2350.00,97.17
2349.00,97.18
2348.00,97.18
2347.00,97.18
2346.00,97.17
2345.00,97.15
2344.00,97.14
2343.00,97.13
2342.00,97.12
2341.00,97.11
2340.00,97.11
2339.00,97.10
2338.00,97.10
2337.00,97.10
2336.00,97.11
2335.00,97.12
2334.00,97.13
2333.00,97.13
2332.00,97.14
2331.00,97.14
2330.00,97.13
2329.00,97.11
2328.00,97.08
2327.00,97.03
2326.00,96.95
2325.00,96.87
2324.00,96.82
2323.00,96.81
2322.00,96.83
2321.00,96.86
2320.00,96.89
2319.00,96.91
2318.00,96.93
2317.00,96.95
2316.00,96.96
2315.00,96.96
2314.00,96.96
2313.00,96.96
2312.00,96.96
2311.00,96.96
2310.00,96.97
2309.00,96.98
2308.00,96.99
2307.00,96.99
2306.00,96.98
2305.00,96.97
2304.00,96.97
2303.00,96.97
2302.00,96.97
2301.00,96.97
2300.00,96.96
2299.00,96.96
2298.00,96.95
2297.00,96.94
2296.00,96.94
2295.00,96.93
2294.00,96.92
2293.00,96.91
2292.00,96.89
2291.00,96.87
2290.00,96.86
2289.00,96.83
2288.00,96.81
2287.00,96.79
2286.00,96.78
2285.00,96.78
2284.00,96.79
2283.00,96.80
2282.00,96.82
2281.00,96.84
2280.00,96.86
2279.00,96.87
2278.00,96.87
2277.00,96.88
2276.00,96.88
2275.00,96.89
2274.00,96.89
2273.00,96.89
2272.00,96.89
2271.00,96.88
2270.00,96.88
2269.00,96.89
2268.00,96.89
2267.00,96.91
2266.00,96.92
2265.00,96.93
2264.00,96.93
2263.00,96.93
2262.00,96.94
2261.00,96.94
2260.00,96.92
2259.00,96.91
2258.00,96.89
2257.00,96.89
2256.00,96.89
2255.00,96.91
2254.00,96.93
2253.00,96.94
2252.00,96.94
2251.00,96.94
2250.00,96.94
2249.00,96.95
2248.00,96.95
2247.00,96.96
2246.00,96.97
2245.00,96.97
2244.00,96.96
2243.00,96.95
2242.00,96.93
2241.00,96.92
2240.00,96.91
2239.00,96.91
2238.00,96.92
2237.00,96.92
2236.00,96.92
2235.00,96.93
2234.00,96.94
2233.00,96.95
2232.00,96.95
2231.00,96.94
2230.00,96.94
2229.00,96.92
2228.00,96.91
2227.00,96.90
2226.00,96.90
2225.00,96.90
2224.00,96.91
2223.00,96.92
2222.00,96.93
2221.00,96.93
2220.00,96.93
2219.00,96.92
2218.00,96.91
2217.00,96.90
2216.00,96.89
2215.00,96.90
2214.00,96.90
2213.00,96.90
2212.00,96.90
2211.00,96.90
2210.00,96.91
2209.00,96.91
2208.00,96.91
2207.00,96.91
2206.00,96.90
2205.00,96.89
2204.00,96.88
2203.00,96.88
2202.00,96.88
2201.00,96.87
2200.00,96.87
2199.00,96.86
2198.00,96.85
2197.00,96.83
2196.00,96.80
2195.00,96.79
2194.00,96.77
2193.00,96.76
2192.00,96.74
2191.00,96.74
2190.00,96.73
2189.00,96.73
2188.00,96.72
2187.00,96.71
2186.00,96.70
2185.00,96.70
2184.00,96.72
2183.00,96.76
2182.00,96.80
2181.00,96.84
2180.00,96.86
2179.00,96.85
2178.00,96.82
2177.00,96.81
2176.00,96.82
2175.00,96.86
2174.00,96.88
2173.00,96.86
2172.00,96.81
2171.00,96.75
2170.00,96.70
2169.00,96.64
2168.00,96.58
2167.00,96.54
2166.00,96.50
2165.00,96.47
2164.00,96.43
2163.00,96.38
2162.00,96.35
2161.00,96.39
2160.00,96.57
2159.00,96.86
2158.00,97.16
2157.00,97.36
2156.00,97.44
2155.00,97.43
2154.00,97.38
2153.00,97.31
2152.00,97.25
2151.00,97.21
2150.00,97.19
2149.00,97.18
2148.00,97.19
2147.00,97.21
2146.00,97.24
2145.00,97.26
2144.00,97.27
2143.00,97.28
2142.00,97.28
2141.00,97.27
2140.00,97.26
2139.00,97.25
2138.00,97.26
2137.00,97.29
2136.00,97.33
2135.00,97.38
2134.00,97.43
2133.00,97.45
2132.00,97.45
2131.00,97.43
2130.00,97.40
2129.00,97.37
2128.00,97.34
2127.00,97.30
2126.00,97.27
2125.00,97.24
2124.00,97.22
2123.00,97.20
2122.00,97.18
2121.00,97.17
2120.00,97.15
2119.00,97.13
2118.00,97.11
2117.00,97.09
2116.00,97.06
2115.00,97.04
2114.00,97.03
2113.00,97.02
2112.00,97.02
2111.00,97.03
2110.00,97.03
2109.00,97.02
2108.00,97.01
2107.00,97.00
2106.00,96.99
2105.00,96.99
2104.00,97.00
2103.00,97.01
2102.00,97.03
2101.00,97.03
2100.00,97.03
2099.00,97.03
2098.00,97.04
2097.00,97.06
2096.00,97.09
2095.00,97.12
2094.00,97.15
2093.00,97.16
2092.00,97.14
2091.00,97.11
2090.00,97.09
2089.00,97.06
2088.00,97.04
2087.00,97.03
2086.00,97.03
2085.00,97.02
2084.00,97.01
2083.00,96.99
2082.00,96.98
2081.00,96.96
2080.00,96.95
2079.00,96.95
2078.00,96.95
2077.00,96.95
2076.00,96.95
2075.00,96.95
2074.00,96.96
2073.00,96.96
2072.00,96.96
2071.00,96.96
2070.00,96.96
2069.00,96.95
2068.00,96.94
2067.00,96.95
2066.00,96.96
2065.00,96.97
2064.00,96.98
2063.00,96.98
2062.00,96.98
2061.00,96.97
2060.00,96.97
2059.00,96.96
2058.00,96.95
2057.00,96.93
2056.00,96.91
2055.00,96.90
2054.00,96.88
2053.00,96.83
2052.00,96.74
2051.00,96.66
2050.00,96.63
2049.00,96.66
2048.00,96.71
2047.00,96.76
2046.00,96.79
2045.00,96.80
2044.00,96.80
2043.00,96.80
2042.00,96.78
2041.00,96.76
2040.00,96.73
2039.00,96.72
2038.00,96.72
2037.00,96.72
2036.00,96.73
2035.00,96.76
2034.00,96.81
2033.00,96.84
2032.00,96.86
2031.00,96.87
2030.00,96.87
2029.00,96.88
2028.00,96.88
2027.00,96.90
2026.00,96.91
2025.00,96.91
2024.00,96.90
2023.00,96.88
2022.00,96.88
2021.00,96.88
2020.00,96.89
2019.00,96.89
2018.00,96.89
2017.00,96.89
2016.00,96.89
2015.00,96.90
2014.00,96.90
2013.00,96.90
2012.00,96.89
2011.00,96.88
2010.00,96.88
2009.00,96.89
2008.00,96.93
2007.00,97.00
2006.00,97.07
2005.00,97.10
2004.00,97.09
2003.00,97.06
2002.00,97.03
2001.00,97.00
2000.00,96.98
1999.00,96.97
1998.00,96.96
1997.00,96.94
1996.00,96.92
1995.00,96.90
1994.00,96.89
1993.00,96.88
1992.00,96.87
1991.00,96.85
1990.00,96.84
1989.00,96.83
1988.00,96.82
1987.00,96.81
1986.00,96.79
1985.00,96.75
1984.00,96.71
1983.00,96.66
1982.00,96.60
1981.00,96.53
1980.00,96.50
1979.00,96.54
1978.00,96.64
1977.00,96.77
1976.00,96.87
1975.00,96.94
1974.00,96.98
1973.00,96.99
1972.00,96.99
1971.00,96.99
1970.00,96.99
1969.00,96.98
1968.00,96.97
1967.00,96.97
1966.00,96.98
1965.00,97.00
1964.00,97.01
1963.00,97.02
1962.00,97.03
1961.00,97.04
1960.00,97.06
1959.00,97.09
1958.00,97.11
1957.00,97.10
1956.00,97.08
1955.00,97.06
1954.00,97.05
1953.00,97.05
1952.00,97.05
1951.00,97.05
1950.00,97.05
1949.00,97.04
1948.00,97.04
1947.00,97.04
1946.00,97.04
1945.00,97.04
1944.00,97.05
1943.00,97.05
1942.00,97.06
1941.00,97.05
1940.00,97.04
1939.00,97.05
1938.00,97.06
1937.00,97.07
1936.00,97.08
1935.00,97.09
1934.00,97.09
1933.00,97.09
1932.00,97.10
1931.00,97.11
1930.00,97.11
1929.00,97.11
1928.00,97.10
1927.00,97.09
1926.00,97.10
1925.00,97.10
1924.00,97.10
1923.00,97.10
1922.00,97.09
1921.00,97.08
1920.00,97.06
1919.00,97.06
1918.00,97.06
1917.00,97.06
1916.00,97.06
1915.00,97.07
1914.00,97.07
1913.00,97.07
1912.00,97.07
1911.00,97.07
1910.00,97.06
1909.00,97.06
1908.00,97.06
1907.00,97.07
1906.00,97.08
1905.00,97.08
1904.00,97.08
1903.00,97.08
1902.00,97.08
1901.00,97.08
1900.00,97.08
1899.00,97.08
1898.00,97.09
1897.00,97.09
1896.00,97.09
1895.00,97.09
1894.00,97.09
1893.00,97.08
1892.00,97.08
1891.00,97.09
1890.00,97.10
1889.00,97.11
1888.00,97.11
1887.00,97.11
1886.00,97.11
1885.00,97.11
1884.00,97.11
1883.00,97.11
1882.00,97.12
1881.00,97.12
1880.00,97.12
1879.00,97.12
1878.00,97.12
1877.00,97.12
1876.00,97.12
1875.00,97.12
1874.00,97.12
1873.00,97.13
1872.00,97.12
1871.00,97.12
1870.00,97.13
1869.00,97.13
1868.00,97.13
1867.00,97.13
1866.00,97.14
1865.00,97.14
1864.00,97.14
1863.00,97.14
1862.00,97.14
1861.00,97.14
1860.00,97.13
1859.00,97.13
1858.00,97.13
1857.00,97.13
1856.00,97.14
1855.00,97.14
1854.00,97.14
1853.00,97.14
1852.00,97.13
1851.00,97.14
1850.00,97.14
1849.00,97.15
1848.00,97.14
1847.00,97.14
1846.00,97.14
1845.00,97.15
1844.00,97.16
1843.00,97.16
1842.00,97.15
1841.00,97.14
1840.00,97.14
1839.00,97.14
1838.00,97.15
1837.00,97.15
1836.00,97.15
1835.00,97.15
1834.00,97.15
1833.00,97.15
1832.00,97.14
1831.00,97.14
1830.00,97.15
1829.00,97.15
1828.00,97.15
1827.00,97.16
1826.00,97.16
1825.00,97.16
1824.00,97.15
1823.00,97.15
1822.00,97.15
1821.00,97.16
1820.00,97.17
1819.00,97.20
1818.00,97.22
1817.00,97.24
1816.00,97.24
1815.00,97.23
1814.00,97.22
1813.00,97.20
1812.00,97.19
1811.00,97.19
1810.00,97.18
1809.00,97.18
1808.00,97.17
1807.00,97.17
1806.00,97.17
1805.00,97.16
1804.00,97.16
1803.00,97.16
1802.00,97.16
1801.00,97.15
1800.00,97.14
1799.00,97.14
1798.00,97.13
1797.00,97.13
1796.00,97.12
1795.00,97.12
1794.00,97.12
1793.00,97.11
1792.00,97.10
1791.00,97.09
1790.00,97.08
1789.00,97.07
1788.00,97.06
1787.00,97.04
1786.00,97.03
1785.00,97.01
1784.00,96.99
1783.00,96.97
1782.00,96.95
1781.00,96.94
1780.00,96.92
1779.00,96.91
1778.00,96.90
1777.00,96.89
1776.00,96.88
1775.00,96.86
1774.00,96.85
1773.00,96.83
1772.00,96.80
1771.00,96.78
1770.00,96.76
1769.00,96.73
1768.00,96.70
1767.00,96.67
1766.00,96.64
1765.00,96.61
1764.00,96.59
1763.00,96.57
1762.00,96.55
1761.00,96.53
1760.00,96.51
1759.00,96.49
1758.00,96.49
1757.00,96.49
1756.00,96.49
1755.00,96.49
1754.00,96.50
1753.00,96.50
1752.00,96.51
1751.00,96.51
1750.00,96.51
1749.00,96.51
1748.00,96.51
1747.00,96.51
1746.00,96.51
1745.00,96.51
1744.00,96.51
1743.00,96.51
1742.00,96.51
1741.00,96.50
1740.00,96.50
1739.00,96.49
1738.00,96.48
1737.00,96.48
1736.00,96.47
1735.00,96.48
1734.00,96.48
1733.00,96.48
1732.00,96.47
1731.00,96.47
1730.00,96.47
1729.00,96.46
1728.00,96.46
1727.00,96.45
1726.00,96.44
1725.00,96.43
1724.00,96.41
1723.00,96.40
1722.00,96.39
1721.00,96.37
1720.00,96.36
1719.00,96.35
1718.00,96.34
1717.00,96.32
1716.00,96.31
1715.00,96.31
1714.00,96.31
1713.00,96.31
1712.00,96.31
1711.00,96.31
1710.00,96.32
1709.00,96.33
1708.00,96.34
1707.00,96.35
1706.00,96.37
1705.00,96.38
1704.00,96.39
1703.00,96.41
1702.00,96.43
1701.00,96.46
1700.00,96.47
1699.00,96.48
1698.00,96.48
1697.00,96.48
1696.00,96.48
1695.00,96.48
1694.00,96.47
1693.00,96.46
1692.00,96.45
1691.00,96.45
1690.00,96.44
1689.00,96.43
1688.00,96.41
1687.00,96.40
1686.00,96.40
1685.00,96.38
1684.00,96.36
1683.00,96.33
1682.00,96.31
1681.00,96.30
1680.00,96.28
1679.00,96.26
1678.00,96.25
1677.00,96.23
1676.00,96.20
1675.00,96.18
1674.00,96.15
1673.00,96.13
1672.00,96.12
1671.00,96.10
1670.00,96.09
1669.00,96.07
1668.00,96.05
1667.00,96.03
1666.00,96.03
1665.00,96.02
1664.00,96.01
1663.00,96.00
1662.00,95.99
1661.00,95.97
1660.00,95.97
1659.00,95.96
1658.00,95.97
1657.00,95.97
1656.00,95.96
1655.00,95.96
1654.00,95.97
1653.00,95.97
1652.00,95.97
1651.00,95.96
1650.00,95.96
1649.00,95.96
1648.00,95.96
1647.00,95.97
1646.00,95.98
1645.00,95.98
1644.00,95.98
1643.00,95.98
1642.00,95.99
1641.00,95.99
1640.00,95.99
1639.00,96.00
1638.00,96.01
1637.00,96.03
1636.00,96.06
1635.00,96.09
1634.00,96.12
1633.00,96.13
1632.00,96.14
1631.00,96.16
1630.00,96.18
1629.00,96.19
1628.00,96.21
1627.00,96.22
1626.00,96.24
1625.00,96.26
1624.00,96.27
1623.00,96.30
1622.00,96.31
1621.00,96.33
1620.00,96.33
1619.00,96.34
1618.00,96.36
1617.00,96.38
1616.00,96.40
1615.00,96.41
1614.00,96.43
1613.00,96.44
1612.00,96.45
1611.00,96.46
1610.00,96.47
1609.00,96.48
1608.00,96.48
1607.00,96.49
1606.00,96.50
1605.00,96.50
1604.00,96.50
1603.00,96.51
1602.00,96.52
1601.00,96.52
1600.00,96.52
1599.00,96.52
1598.00,96.52
1597.00,96.52
1596.00,96.52
1595.00,96.52
1594.00,96.52
1593.00,96.52
1592.00,96.52
1591.00,96.52
1590.00,96.52
1589.00,96.52
1588.00,96.51
1587.00,96.51
1586.00,96.51
1585.00,96.51
1584.00,96.50
1583.00,96.50
1582.00,96.49
1581.00,96.49
1580.00,96.47
1579.00,96.46
1578.00,96.46
1577.00,96.44
1576.00,96.43
1575.00,96.42
1574.00,96.42
1573.00,96.41
1572.00,96.41
1571.00,96.40
1570.00,96.40
1569.00,96.39
1568.00,96.38
1567.00,96.37
1566.00,96.37
1565.00,96.36
1564.00,96.36
1563.00,96.36
1562.00,96.36
1561.00,96.36
1560.00,96.36
1559.00,96.35
1558.00,96.35
1557.00,96.34
1556.00,96.33
1555.00,96.33
1554.00,96.34
1553.00,96.33
1552.00,96.32
1551.00,96.31
1550.00,96.31
1549.00,96.30
1548.00,96.30
1547.00,96.30
1546.00,96.30
1545.00,96.30
1544.00,96.28
1543.00,96.27
1542.00,96.26
1541.00,96.25
1540.00,96.23
1539.00,96.22
1538.00,96.22
1537.00,96.21
1536.00,96.19
1535.00,96.19
1534.00,96.18
1533.00,96.17
1532.00,96.15
1531.00,96.14
1530.00,96.13
1529.00,96.12
1528.00,96.09
1527.00,96.07
1526.00,96.06
1525.00,96.03
1524.00,96.00
1523.00,95.98
1522.00,95.97
1521.00,95.94
1520.00,95.90
1519.00,95.87
1518.00,95.85
1517.00,95.81
1516.00,95.77
1515.00,95.74
1514.00,95.71
1513.00,95.68
1512.00,95.63
1511.00,95.60
1510.00,95.57
1509.00,95.52
1508.00,95.45
1507.00,95.37
1506.00,95.29
1505.00,95.22
1504.00,95.16
1503.00,95.11
1502.00,95.06
1501.00,94.98
1500.00,94.89
1499.00,94.81
1498.00,94.72
1497.00,94.60
1496.00,94.46
1495.00,94.34
1494.00,94.25
1493.00,94.14
1492.00,94.01
1491.00,93.87
1490.00,93.70
1489.00,93.50
1488.00,93.30
1487.00,93.13
1486.00,92.96
1485.00,92.78
1484.00,92.58
1483.00,92.39
1482.00,92.17
1481.00,91.92
1480.00,91.67
1479.00,91.44
1478.00,91.18
1477.00,90.86
1476.00,90.50
1475.00,90.11
1474.00,89.59
1473.00,88.83
1472.00,87.93
1471.00,87.08
1470.00,86.32
1469.00,85.61
1468.00,84.94
1467.00,84.32
1466.00,83.74
1465.00,83.21
1464.00,82.78
1463.00,82.48
1462.00,82.23
1461.00,82.01
1460.00,81.79
1459.00,81.58
1458.00,81.38
1457.00,81.20
1456.00,81.13
1455.00,81.17
1454.00,81.26
1453.00,81.36
1452.00,81.47
1451.00,81.58
1450.00,81.66
1449.00,81.70
1448.00,81.71
1447.00,81.72
1446.00,81.71
1445.00,81.67
1444.00,81.63
1443.00,81.58
1442.00,81.52
1441.00,81.44
1440.00,81.38
1439.00,81.33
1438.00,81.26
1437.00,81.17
1436.00,81.09
1435.00,81.06
1434.00,81.06
1433.00,81.07
1432.00,81.10
1431.00,81.14
1430.00,81.19
1429.00,81.24
1428.00,81.30
1427.00,81.38
1426.00,81.45
1425.00,81.51
1424.00,81.58
1423.00,81.65
1422.00,81.71
1421.00,81.77
1420.00,81.82
1419.00,81.89
1418.00,81.95
1417.00,82.01
1416.00,82.09
1415.00,82.18
1414.00,82.28
1413.00,82.38
1412.00,82.50
1411.00,82.64
1410.00,82.78
1409.00,82.93
1408.00,83.09
1407.00,83.28
1406.00,83.48
1405.00,83.70
1404.00,83.95
1403.00,84.20
1402.00,84.45
1401.00,84.72
1400.00,85.03
1399.00,85.38
1398.00,85.71
1397.00,86.04
1396.00,86.39
1395.00,86.75
1394.00,87.10
1393.00,87.41
1392.00,87.68
1391.00,87.91
1390.00,88.12
1389.00,88.29
1388.00,88.41
1387.00,88.48
1386.00,88.48
1385.00,88.43
1384.00,88.33
1383.00,88.18
1382.00,87.99
1381.00,87.78
1380.00,87.56
1379.00,87.32
1378.00,87.10
1377.00,86.89
1376.00,86.71
1375.00,86.54
1374.00,86.38
1373.00,86.26
1372.00,86.18
1371.00,86.12
1370.00,86.08
1369.00,86.05
1368.00,86.03
1367.00,86.02
1366.00,86.02
1365.00,86.01
1364.00,85.99
1363.00,85.95
1362.00,85.89
1361.00,85.82
1360.00,85.74
1359.00,85.64
1358.00,85.53
1357.00,85.40
1356.00,85.25
1355.00,85.09
1354.00,84.92
1353.00,84.74
1352.00,84.56
1351.00,84.38
1350.00,84.18
1349.00,83.99
1348.00,83.79
1347.00,83.59
1346.00,83.39
1345.00,83.20
1344.00,83.02
1343.00,82.84
1342.00,82.67
1341.00,82.49
1340.00,82.30
1339.00,82.13
1338.00,81.97
1337.00,81.84
1336.00,81.73
1335.00,81.64
1334.00,81.56
1333.00,81.49
1332.00,81.42
1331.00,81.38
1330.00,81.34
1329.00,81.31
1328.00,81.30
1327.00,81.30
1326.00,81.32
1325.00,81.35
1324.00,81.39
1323.00,81.44
1322.00,81.50
1321.00,81.58
1320.00,81.67
1319.00,81.77
1318.00,81.88
1317.00,82.00
1316.00,82.12
1315.00,82.25
1314.00,82.37
1313.00,82.51
1312.00,82.64
1311.00,82.77
1310.00,82.90
1309.00,83.02
1308.00,83.14
1307.00,83.27
1306.00,83.39
1305.00,83.50
1304.00,83.61
1303.00,83.72
1302.00,83.83
1301.00,83.94
1300.00,84.06
1299.00,84.18
1298.00,84.30
1297.00,84.42
1296.00,84.54
1295.00,84.67
1294.00,84.80
1293.00,84.93
1292.00,85.06
1291.00,85.18
1290.00,85.31
1289.00,85.43
1288.00,85.55
1287.00,85.66
1286.00,85.77
1285.00,85.87
1284.00,85.96
1283.00,86.05
1282.00,86.14
1281.00,86.22
1280.00,86.30
1279.00,86.37
1278.00,86.44
1277.00,86.51
1276.00,86.58
1275.00,86.64
1274.00,86.71
1273.00,86.78
1272.00,86.85
1271.00,86.92
1270.00,86.98
1269.00,87.06
1268.00,87.13
1267.00,87.21
1266.00,87.30
1265.00,87.39
1264.00,87.48
1263.00,87.58
1262.00,87.68
1261.00,87.78
1260.00,87.90
1259.00,88.02
1258.00,88.14
1257.00,88.27
1256.00,88.41
1255.00,88.54
1254.00,88.67
1253.00,88.80
1252.00,88.93
1251.00,89.06
1250.00,89.18
1249.00,89.30
1248.00,89.40
1247.00,89.50
1246.00,89.59
1245.00,89.66
1244.00,89.72
1243.00,89.77
1242.00,89.80
1241.00,89.83
1240.00,89.85
1239.00,89.85
1238.00,89.85
1237.00,89.84
1236.00,89.83
1235.00,89.83
1234.00,89.81
1233.00,89.79
1232.00,89.78
1231.00,89.76
1230.00,89.73
1229.00,89.71
1228.00,89.69
1227.00,89.68
1226.00,89.66
1225.00,89.66
1224.00,89.66
1223.00,89.67
1222.00,89.69
1221.00,89.70
1220.00,89.72
1219.00,89.73
1218.00,89.74
1217.00,89.75
1216.00,89.77
1215.00,89.78
1214.00,89.79
1213.00,89.81
1212.00,89.83
1211.00,89.84
1210.00,89.84
1209.00,89.86
1208.00,89.87
1207.00,89.88
1206.00,89.90
1205.00,89.92
1204.00,89.94
1203.00,89.96
1202.00,89.97
1201.00,89.98
1200.00,90.00
1199.00,90.01
1198.00,90.02
1197.00,90.04
1196.00,90.05
1195.00,90.06
1194.00,90.07
1193.00,90.07
1192.00,90.08
1191.00,90.09
1190.00,90.10
1189.00,90.11
1188.00,90.13
1187.00,90.15
1186.00,90.17
1185.00,90.20
1184.00,90.23
1183.00,90.26
1182.00,90.29
1181.00,90.32
1180.00,90.35
1179.00,90.38
1178.00,90.41
1177.00,90.44
1176.00,90.47
1175.00,90.49
1174.00,90.51
1173.00,90.53
1172.00,90.55
1171.00,90.56
1170.00,90.57
1169.00,90.58
1168.00,90.58
1167.00,90.57
1166.00,90.56
1165.00,90.53
1164.00,90.49
1163.00,90.44
1162.00,90.38
1161.00,90.30
1160.00,90.20
1159.00,90.07
1158.00,89.90
1157.00,89.69
1156.00,89.45
1155.00,89.15
1154.00,88.79
1153.00,88.37
1152.00,87.89
1151.00,87.34
1150.00,86.72
1149.00,86.05
1148.00,85.33
1147.00,84.57
1146.00,83.78
1145.00,82.99
1144.00,82.21
1143.00,81.48
1142.00,80.80
1141.00,80.20
1140.00,79.67
1139.00,79.23
1138.00,78.87
1137.00,78.57
1136.00,78.32
1135.00,78.13
1134.00,77.96
1133.00,77.82
1132.00,77.68
1131.00,77.55
1130.00,77.42
1129.00,77.27
1128.00,77.12
1127.00,76.96
1126.00,76.80
1125.00,76.63
1124.00,76.46
1123.00,76.29
1122.00,76.13
1121.00,75.97
1120.00,75.82
1119.00,75.68
1118.00,75.55
1117.00,75.44
1116.00,75.34
1115.00,75.26
1114.00,75.20
1113.00,75.15
1112.00,75.11
1111.00,75.07
1110.00,75.04
1109.00,75.01
1108.00,74.97
1107.00,74.94
1106.00,74.90
1105.00,74.85
1104.00,74.79
1103.00,74.71
1102.00,74.61
1101.00,74.48
1100.00,74.35
1099.00,74.21
1098.00,74.06
1097.00,73.90
1096.00,73.73
1095.00,73.56
1094.00,73.39
1093.00,73.23
1092.00,73.08
1091.00,72.95
1090.00,72.83
1089.00,72.72
1088.00,72.62
1087.00,72.54
1086.00,72.47
1085.00,72.41
1084.00,72.36
1083.00,72.33
1082.00,72.31
1081.00,72.30
1080.00,72.29
1079.00,72.30
1078.00,72.32
1077.00,72.35
1076.00,72.38
1075.00,72.42
1074.00,72.47
1073.00,72.53
1072.00,72.58
1071.00,72.65
1070.00,72.73
1069.00,72.82
1068.00,72.92
1067.00,73.04
1066.00,73.18
1065.00,73.34
1064.00,73.50
1063.00,73.67
1062.00,73.85
1061.00,74.03
1060.00,74.19
1059.00,74.34
1058.00,74.50
1057.00,74.64
1056.00,74.76
1055.00,74.88
1054.00,74.99
1053.00,75.09
1052.00,75.16
1051.00,75.23
1050.00,75.29
1049.00,75.33
1048.00,75.37
1047.00,75.42
1046.00,75.46
1045.00,75.49
1044.00,75.51
1043.00,75.54
1042.00,75.57
1041.00,75.59
1040.00,75.62
1039.00,75.66
1038.00,75.71
1037.00,75.76
1036.00,75.80
1035.00,75.85
1034.00,75.90
1033.00,75.94
1032.00,75.98
1031.00,76.02
1030.00,76.06
1029.00,76.10
1028.00,76.12
1027.00,76.14
1026.00,76.15
1025.00,76.15
1024.00,76.15
1023.00,76.15
1022.00,76.16
1021.00,76.16
1020.00,76.17
1019.00,76.18
1018.00,76.20
1017.00,76.23
1016.00,76.27
1015.00,76.32
1014.00,76.38
1013.00,76.46
1012.00,76.55
1011.00,76.65
1010.00,76.77
1009.00,76.89
1008.00,77.02
1007.00,77.16
1006.00,77.31
1005.00,77.46
1004.00,77.62
1003.00,77.78
1002.00,77.94
1001.00,78.09
1000.00,78.24
999.00,78.38
998.00,78.52
997.00,78.66
996.00,78.80
995.00,78.94
994.00,79.08
993.00,79.21
992.00,79.34
991.00,79.47
990.00,79.60
989.00,79.74
988.00,79.87
987.00,80.00
986.00,80.14
985.00,80.27
984.00,80.41
983.00,80.55
982.00,80.70
981.00,80.84
980.00,80.98
979.00,81.13
978.00,81.27
977.00,81.43
976.00,81.58
975.00,81.74
974.00,81.89
973.00,82.05
972.00,82.21
971.00,82.36
970.00,82.52
969.00,82.66
968.00,82.80
967.00,82.94
966.00,83.09
965.00,83.24
964.00,83.38
963.00,83.51
962.00,83.65
961.00,83.78
960.00,83.90
959.00,84.03
958.00,84.16
957.00,84.27
956.00,84.39
955.00,84.49
954.00,84.60
953.00,84.69
952.00,84.78
951.00,84.87
950.00,84.95
949.00,85.03
948.00,85.11
947.00,85.18
946.00,85.24
945.00,85.29
944.00,85.34
943.00,85.39
942.00,85.43
941.00,85.46
940.00,85.49
939.00,85.51
938.00,85.52
937.00,85.53
936.00,85.53
935.00,85.54
934.00,85.54
933.00,85.54
932.00,85.55
931.00,85.55
930.00,85.54
929.00,85.53
928.00,85.50
927.00,85.47
926.00,85.44
925.00,85.41
924.00,85.37
923.00,85.33
922.00,85.29
921.00,85.25
920.00,85.22
919.00,85.19
918.00,85.15
917.00,85.11
916.00,85.06
915.00,85.01
914.00,84.96
913.00,84.92
912.00,84.88
911.00,84.85
910.00,84.81
909.00,84.78
908.00,84.74
907.00,84.70
906.00,84.65
905.00,84.60
904.00,84.55
903.00,84.51
902.00,84.47
901.00,84.43
900.00,84.40
899.00,84.36
898.00,84.33
897.00,84.30
896.00,84.28
895.00,84.26
894.00,84.25
893.00,84.25
892.00,84.26
891.00,84.27
890.00,84.29
889.00,84.32
888.00,84.35
887.00,84.38
886.00,84.42
885.00,84.47
884.00,84.53
883.00,84.60
882.00,84.67
881.00,84.75
880.00,84.82
879.00,84.89
878.00,84.96
877.00,85.04
876.00,85.10
875.00,85.15
874.00,85.18
873.00,85.19
872.00,85.19
871.00,85.17
870.00,85.13
869.00,85.05
868.00,84.92
867.00,84.74
866.00,84.52
865.00,84.24
864.00,83.92
863.00,83.57
862.00,83.18
861.00,82.78
860.00,82.34
859.00,81.89
858.00,81.42
857.00,80.93
856.00,80.43
855.00,79.93
854.00,79.44
853.00,78.95
852.00,78.47
851.00,78.05
850.00,77.67
849.00,77.36
848.00,77.10
847.00,76.91
846.00,76.78
845.00,76.70
844.00,76.67
843.00,76.67
842.00,76.69
841.00,76.72
840.00,76.73
839.00,76.73
838.00,76.71
837.00,76.66
836.00,76.58
835.00,76.50
834.00,76.41
833.00,76.33
832.00,76.27
831.00,76.24
830.00,76.24
829.00,76.25
828.00,76.28
827.00,76.35
826.00,76.47
825.00,76.64
824.00,76.86
823.00,77.10
822.00,77.37
821.00,77.66
820.00,77.96
819.00,78.27
818.00,78.58
817.00,78.88
816.00,79.18
815.00,79.48
814.00,79.79
813.00,80.10
812.00,80.42
811.00,80.76
810.00,81.11
809.00,81.46
808.00,81.80
807.00,82.12
806.00,82.44
805.00,82.74
804.00,83.02
803.00,83.27
802.00,83.50
801.00,83.70
800.00,83.87
799.00,84.02
798.00,84.15
797.00,84.25
796.00,84.33
795.00,84.39
794.00,84.42
793.00,84.44
792.00,84.45
791.00,84.45
790.00,84.45
789.00,84.43
788.00,84.40
787.00,84.37
786.00,84.33
785.00,84.29
784.00,84.23
783.00,84.17
782.00,84.10
781.00,84.03
780.00,83.97
779.00,83.91
778.00,83.85
777.00,83.78
776.00,83.70
775.00,83.61
774.00,83.53
773.00,83.44
772.00,83.34
771.00,83.26
770.00,83.18
769.00,83.11
768.00,83.03
767.00,82.94
766.00,82.84
765.00,82.75
764.00,82.65
763.00,82.54
762.00,82.44
761.00,82.35
760.00,82.25
759.00,82.16
758.00,82.07
757.00,81.98
756.00,81.88
755.00,81.77
754.00,81.64
753.00,81.52
752.00,81.39
751.00,81.28
750.00,81.16
749.00,81.02
748.00,80.88
747.00,80.73
746.00,80.60
745.00,80.47
744.00,80.32
743.00,80.17
742.00,80.03
741.00,79.88
740.00,79.74
739.00,79.61
738.00,79.48
737.00,79.35
736.00,79.22
735.00,79.08
734.00,78.93
733.00,78.74
732.00,78.53
731.00,78.30
730.00,78.06
729.00,77.81
728.00,77.55
727.00,77.30
726.00,77.06
725.00,76.85
724.00,76.68
723.00,76.55
722.00,76.50
721.00,76.50
720.00,76.55
719.00,76.63
718.00,76.74
717.00,76.84
716.00,76.94
715.00,77.02
714.00,77.08
713.00,77.12
712.00,77.15
711.00,77.17
710.00,77.19
709.00,77.18
708.00,77.15
707.00,77.12
706.00,77.09
705.00,77.06
704.00,77.02
703.00,76.97
702.00,76.91
701.00,76.84
700.00,76.76
699.00,76.67
698.00,76.58
697.00,76.49
696.00,76.40
695.00,76.32
694.00,76.24
693.00,76.16
692.00,76.08
691.00,76.01
690.00,75.94
689.00,75.86
688.00,75.77
687.00,75.68
686.00,75.61
685.00,75.54
684.00,75.46
683.00,75.38
682.00,75.30
681.00,75.23
680.00,75.13
679.00,75.03
678.00,74.94
677.00,74.85
676.00,74.77
675.00,74.71
674.00,74.64
673.00,74.57
672.00,74.48
671.00,74.40
670.00,74.33
669.00,74.18
668.00,73.95
667.00,73.78
666.00,73.73
665.00,73.71
664.00,73.67
663.00,73.61
662.00,73.55
661.00,73.48
660.00,73.41
659.00,73.34
658.00,73.28
657.00,73.21
656.00,73.11
655.00,73.02
654.00,72.93
653.00,72.85
652.00,72.77
651.00,72.71
650.00,72.67
