Created as New Dataset,EVOH (32mol% ethylene) Soarnol
cm-1,%T
4000.00,98.17
3999.00,98.17
3998.00,98.17
3997.00,98.17
3996.00,98.17
3995.00,98.17
3994.00,98.17
3993.00,98.17
3992.00,98.17
3991.00,98.17
3990.00,98.17
3989.00,98.17
3988.00,98.18
3987.00,98.18
3986.00,98.18
3985.00,98.18
3984.00,98.18
3983.00,98.18
3982.00,98.18
3981.00,98.18
3980.00,98.18
3979.00,98.18
3978.00,98.18
3977.00,98.18
3976.00,98.18
3975.00,98.18
3974.00,98.18
3973.00,98.18
3972.00,98.18
3971.00,98.18
3970.00,98.18
3969.00,98.18
3968.00,98.19
3967.00,98.19
3966.00,98.19
3965.00,98.19
3964.00,98.19
3963.00,98.19
3962.00,98.19
3961.00,98.19
3960.00,98.18
3959.00,98.18
3958.00,98.18
3957.00,98.18
3956.00,98.19
3955.00,98.19
3954.00,98.19
3953.00,98.19
3952.00,98.19
3951.00,98.19
3950.00,98.19
3949.00,98.18
3948.00,98.18
3947.00,98.18
3946.00,98.18
3945.00,98.18
3944.00,98.19
3943.00,98.19
3942.00,98.19
3941.00,98.19
3940.00,98.18
3939.00,98.18
3938.00,98.18
3937.00,98.18
3936.00,98.18
3935.00,98.18
3934.00,98.18
3933.00,98.19
3932.00,98.19
3931.00,98.19
3930.00,98.19
3929.00,98.19
3928.00,98.18
3927.00,98.18
3926.00,98.18
3925.00,98.19
3924.00,98.19
3923.00,98.19
3922.00,98.19
3921.00,98.19
3920.00,98.20
3919.00,98.20
3918.00,98.20
3917.00,98.20
3916.00,98.20
3915.00,98.20
3914.00,98.20
3913.00,98.20
3912.00,98.20
3911.00,98.20
3910.00,98.19
3909.00,98.19
3908.00,98.19
3907.00,98.19
3906.00,98.19
3905.00,98.19
3904.00,98.19
3903.00,98.19
3902.00,98.19
3901.00,98.20
3900.00,98.20
3899.00,98.20
3898.00,98.20
3897.00,98.19
3896.00,98.19
3895.00,98.19
3894.00,98.19
3893.00,98.19
3892.00,98.19
3891.00,98.20
3890.00,98.20
3889.00,98.19
3888.00,98.19
3887.00,98.18
3886.00,98.18
3885.00,98.18
3884.00,98.19
3883.00,98.19
3882.00,98.19
3881.00,98.19
3880.00,98.20
3879.00,98.20
3878.00,98.20
3877.00,98.19
3876.00,98.19
3875.00,98.19
3874.00,98.19
3873.00,98.19
3872.00,98.19
3871.00,98.19
3870.00,98.19
3869.00,98.20
3868.00,98.20
3867.00,98.19
3866.00,98.18
3865.00,98.18
3864.00,98.17
3863.00,98.17
3862.00,98.17
3861.00,98.17
3860.00,98.17
3859.00,98.18
3858.00,98.19
3857.00,98.19
3856.00,98.19
3855.00,98.19
3854.00,98.19
3853.00,98.19
3852.00,98.19
3851.00,98.18
3850.00,98.18
3849.00,98.18
3848.00,98.18
3847.00,98.18
3846.00,98.18
3845.00,98.18
3844.00,98.18
3843.00,98.18
3842.00,98.18
3841.00,98.19
3840.00,98.19
3839.00,98.19
3838.00,98.19
3837.00,98.19
3836.00,98.18
3835.00,98.18
3834.00,98.18
3833.00,98.17
3832.00,98.17
3831.00,98.18
3830.00,98.18
3829.00,98.18
3828.00,98.18
3827.00,98.18
3826.00,98.18
3825.00,98.18
3824.00,98.17
3823.00,98.17
3822.00,98.17
3821.00,98.17
3820.00,98.18
3819.00,98.18
3818.00,98.17
3817.00,98.17
3816.00,98.17
3815.00,98.17
3814.00,98.18
3813.00,98.18
3812.00,98.18
3811.00,98.18
3810.00,98.18
3809.00,98.18
3808.00,98.17
3807.00,98.17
3806.00,98.17
3805.00,98.17
3804.00,98.16
3803.00,98.17
3802.00,98.17
3801.00,98.18
3800.00,98.19
3799.00,98.18
3798.00,98.17
3797.00,98.17
3796.00,98.17
3795.00,98.17
3794.00,98.17
3793.00,98.17
3792.00,98.17
3791.00,98.17
3790.00,98.17
3789.00,98.18
3788.00,98.17
3787.00,98.17
3786.00,98.17
3785.00,98.17
3784.00,98.17
3783.00,98.17
3782.00,98.17
3781.00,98.16
3780.00,98.17
3779.00,98.17
3778.00,98.17
3777.00,98.17
3776.00,98.17
3775.00,98.17
3774.00,98.17
3773.00,98.16
3772.00,98.16
3771.00,98.16
3770.00,98.16
3769.00,98.17
3768.00,98.17
3767.00,98.17
3766.00,98.16
3765.00,98.16
3764.00,98.16
3763.00,98.16
3762.00,98.16
3761.00,98.16
3760.00,98.16
3759.00,98.16
3758.00,98.16
3757.00,98.16
3756.00,98.16
3755.00,98.16
3754.00,98.15
3753.00,98.15
3752.00,98.15
3751.00,98.15
3750.00,98.15
3749.00,98.15
3748.00,98.15
3747.00,98.15
3746.00,98.15
3745.00,98.16
3744.00,98.17
3743.00,98.16
3742.00,98.16
3741.00,98.15
3740.00,98.15
3739.00,98.15
3738.00,98.15
3737.00,98.15
3736.00,98.15
3735.00,98.15
3734.00,98.16
3733.00,98.16
3732.00,98.17
3731.00,98.17
3730.00,98.18
3729.00,98.17
3728.00,98.17
3727.00,98.17
3726.00,98.18
3725.00,98.18
3724.00,98.19
3723.00,98.18
3722.00,98.18
3721.00,98.18
3720.00,98.18
3719.00,98.18
3718.00,98.18
3717.00,98.18
3716.00,98.18
3715.00,98.17
3714.00,98.17
3713.00,98.17
3712.00,98.17
3711.00,98.17
3710.00,98.17
3709.00,98.17
3708.00,98.18
3707.00,98.18
3706.00,98.19
3705.00,98.19
3704.00,98.20
3703.00,98.20
3702.00,98.20
3701.00,98.20
3700.00,98.19
3699.00,98.19
3698.00,98.19
3697.00,98.19
3696.00,98.18
3695.00,98.18
3694.00,98.18
3693.00,98.18
3692.00,98.18
3691.00,98.18
3690.00,98.18
3689.00,98.18
3688.00,98.17
3687.00,98.17
3686.00,98.16
3685.00,98.16
3684.00,98.15
3683.00,98.15
3682.00,98.14
3681.00,98.14
3680.00,98.14
3679.00,98.13
3678.00,98.12
3677.00,98.11
3676.00,98.10
3675.00,98.10
3674.00,98.09
3673.00,98.09
3672.00,98.08
3671.00,98.08
3670.00,98.08
3669.00,98.08
3668.00,98.08
3667.00,98.08
3666.00,98.07
3665.00,98.07
3664.00,98.07
3663.00,98.07
3662.00,98.07
3661.00,98.07
3660.00,98.07
3659.00,98.06
3658.00,98.06
3657.00,98.05
3656.00,98.05
3655.00,98.04
3654.00,98.04
3653.00,98.03
3652.00,98.02
3651.00,98.02
3650.00,98.01
3649.00,98.00
3648.00,98.00
3647.00,97.99
3646.00,97.98
3645.00,97.98
3644.00,97.97
3643.00,97.97
3642.00,97.96
3641.00,97.95
3640.00,97.94
3639.00,97.93
3638.00,97.92
3637.00,97.91
3636.00,97.90
3635.00,97.88
3634.00,97.87
3633.00,97.86
3632.00,97.84
3631.00,97.82
3630.00,97.79
3629.00,97.77
3628.00,97.74
3627.00,97.72
3626.00,97.71
3625.00,97.69
3624.00,97.68
3623.00,97.68
3622.00,97.67
3621.00,97.66
3620.00,97.64
3619.00,97.62
3618.00,97.60
3617.00,97.58
3616.00,97.56
3615.00,97.55
3614.00,97.54
3613.00,97.53
3612.00,97.51
3611.00,97.49
3610.00,97.47
3609.00,97.45
3608.00,97.44
3607.00,97.42
3606.00,97.41
3605.00,97.39
3604.00,97.37
3603.00,97.35
3602.00,97.33
3601.00,97.31
3600.00,97.28
3599.00,97.26
3598.00,97.24
3597.00,97.22
3596.00,97.20
3595.00,97.18
3594.00,97.17
3593.00,97.15
3592.00,97.13
3591.00,97.11
3590.00,97.09
3589.00,97.06
3588.00,97.04
3587.00,97.02
3586.00,96.99
3585.00,96.96
3584.00,96.93
3583.00,96.91
3582.00,96.88
3581.00,96.86
3580.00,96.83
3579.00,96.80
3578.00,96.78
3577.00,96.75
3576.00,96.72
3575.00,96.69
3574.00,96.66
3573.00,96.63
3572.00,96.61
3571.00,96.57
3570.00,96.54
3569.00,96.49
3568.00,96.45
3567.00,96.41
3566.00,96.37
3565.00,96.33
3564.00,96.29
3563.00,96.26
3562.00,96.23
3561.00,96.19
3560.00,96.15
3559.00,96.11
3558.00,96.07
3557.00,96.02
3556.00,95.98
3555.00,95.93
3554.00,95.88
3553.00,95.84
3552.00,95.79
3551.00,95.75
3550.00,95.70
3549.00,95.65
3548.00,95.60
3547.00,95.55
3546.00,95.50
3545.00,95.44
3544.00,95.39
3543.00,95.34
3542.00,95.29
3541.00,95.24
3540.00,95.19
3539.00,95.13
3538.00,95.08
3537.00,95.02
3536.00,94.96
3535.00,94.90
3534.00,94.84
3533.00,94.79
3532.00,94.73
3531.00,94.67
3530.00,94.60
3529.00,94.54
3528.00,94.48
3527.00,94.42
3526.00,94.36
3525.00,94.29
3524.00,94.23
3523.00,94.16
3522.00,94.10
3521.00,94.03
3520.00,93.97
3519.00,93.90
3518.00,93.83
3517.00,93.76
3516.00,93.70
3515.00,93.63
3514.00,93.56
3513.00,93.49
3512.00,93.42
3511.00,93.35
3510.00,93.28
3509.00,93.21
3508.00,93.14
3507.00,93.07
3506.00,93.00
3505.00,92.93
3504.00,92.85
3503.00,92.78
3502.00,92.70
3501.00,92.63
3500.00,92.56
3499.00,92.48
3498.00,92.41
3497.00,92.34
3496.00,92.27
3495.00,92.20
3494.00,92.12
3493.00,92.05
3492.00,91.97
3491.00,91.89
3490.00,91.81
3489.00,91.74
3488.00,91.66
3487.00,91.58
3486.00,91.51
3485.00,91.43
3484.00,91.36
3483.00,91.28
3482.00,91.20
3481.00,91.12
3480.00,91.04
3479.00,90.97
3478.00,90.89
3477.00,90.82
3476.00,90.74
3475.00,90.66
3474.00,90.58
3473.00,90.50
3472.00,90.43
3471.00,90.35
3470.00,90.27
3469.00,90.19
3468.00,90.11
3467.00,90.04
3466.00,89.96
3465.00,89.88
3464.00,89.80
3463.00,89.72
3462.00,89.63
3461.00,89.56
3460.00,89.48
3459.00,89.41
3458.00,89.33
3457.00,89.26
3456.00,89.18
3455.00,89.09
3454.00,89.01
3453.00,88.93
3452.00,88.85
3451.00,88.77
3450.00,88.69
3449.00,88.61
3448.00,88.53
3447.00,88.45
3446.00,88.37
3445.00,88.29
3444.00,88.20
3443.00,88.12
3442.00,88.04
3441.00,87.96
3440.00,87.88
3439.00,87.79
3438.00,87.71
3437.00,87.63
3436.00,87.56
3435.00,87.48
3434.00,87.40
3433.00,87.32
3432.00,87.25
3431.00,87.17
3430.00,87.09
3429.00,87.00
3428.00,86.92
3427.00,86.84
3426.00,86.76
3425.00,86.68
3424.00,86.60
3423.00,86.52
3422.00,86.45
3421.00,86.37
3420.00,86.29
3419.00,86.21
3418.00,86.13
3417.00,86.05
3416.00,85.98
3415.00,85.90
3414.00,85.82
3413.00,85.75
3412.00,85.67
3411.00,85.60
3410.00,85.52
3409.00,85.45
3408.00,85.37
3407.00,85.30
3406.00,85.22
3405.00,85.15
3404.00,85.07
3403.00,85.00
3402.00,84.93
3401.00,84.86
3400.00,84.79
3399.00,84.72
3398.00,84.65
3397.00,84.58
3396.00,84.51
3395.00,84.44
3394.00,84.37
3393.00,84.30
3392.00,84.23
3391.00,84.17
3390.00,84.11
3389.00,84.05
3388.00,83.99
3387.00,83.93
3386.00,83.87
3385.00,83.80
3384.00,83.74
3383.00,83.67
3382.00,83.61
3381.00,83.55
3380.00,83.49
3379.00,83.44
3378.00,83.38
3377.00,83.33
3376.00,83.27
3375.00,83.22
3374.00,83.16
3373.00,83.10
3372.00,83.05
3371.00,82.99
3370.00,82.94
3369.00,82.89
3368.00,82.84
3367.00,82.80
3366.00,82.75
3365.00,82.70
3364.00,82.64
3363.00,82.59
3362.00,82.55
3361.00,82.50
3360.00,82.46
3359.00,82.42
3358.00,82.38
3357.00,82.34
3356.00,82.30
3355.00,82.25
3354.00,82.21
3353.00,82.17
3352.00,82.13
3351.00,82.09
3350.00,82.05
3349.00,82.02
3348.00,81.98
3347.00,81.95
3346.00,81.91
3345.00,81.88
3344.00,81.84
3343.00,81.81
3342.00,81.78
3341.00,81.75
3340.00,81.72
3339.00,81.69
3338.00,81.67
3337.00,81.64
3336.00,81.61
3335.00,81.59
3334.00,81.56
3333.00,81.53
3332.00,81.51
3331.00,81.48
3330.00,81.46
3329.00,81.44
3328.00,81.41
3327.00,81.39
3326.00,81.37
3325.00,81.35
3324.00,81.34
3323.00,81.32
3322.00,81.30
3321.00,81.29
3320.00,81.27
3319.00,81.26
3318.00,81.24
3317.00,81.23
3316.00,81.22
3315.00,81.21
3314.00,81.19
3313.00,81.18
3312.00,81.17
3311.00,81.16
3310.00,81.15
3309.00,81.14
3308.00,81.13
3307.00,81.12
3306.00,81.11
3305.00,81.11
3304.00,81.11
3303.00,81.11
3302.00,81.11
3301.00,81.11
3300.00,81.10
3299.00,81.10
3298.00,81.09
3297.00,81.09
3296.00,81.10
3295.00,81.10
3294.00,81.11
3293.00,81.11
3292.00,81.11
3291.00,81.12
3290.00,81.13
3289.00,81.14
3288.00,81.15
3287.00,81.15
3286.00,81.16
3285.00,81.17
3284.00,81.19
3283.00,81.20
3282.00,81.21
3281.00,81.23
3280.00,81.24
3279.00,81.25
3278.00,81.26
3277.00,81.28
3276.00,81.29
3275.00,81.30
3274.00,81.32
3273.00,81.34
3272.00,81.35
3271.00,81.38
3270.00,81.40
3269.00,81.42
3268.00,81.44
3267.00,81.47
3266.00,81.50
3265.00,81.52
3264.00,81.55
3263.00,81.58
3262.00,81.60
3261.00,81.63
3260.00,81.66
3259.00,81.70
3258.00,81.73
3257.00,81.75
3256.00,81.78
3255.00,81.81
3254.00,81.85
3253.00,81.88
3252.00,81.92
3251.00,81.95
3250.00,81.99
3249.00,82.03
3248.00,82.06
3247.00,82.10
3246.00,82.14
3245.00,82.18
3244.00,82.22
3243.00,82.26
3242.00,82.30
3241.00,82.34
3240.00,82.39
3239.00,82.43
3238.00,82.48
3237.00,82.53
3236.00,82.58
3235.00,82.62
3234.00,82.66
3233.00,82.71
3232.00,82.76
3231.00,82.81
3230.00,82.87
3229.00,82.92
3228.00,82.97
3227.00,83.02
3226.00,83.07
3225.00,83.12
3224.00,83.18
3223.00,83.23
3222.00,83.29
3221.00,83.34
3220.00,83.40
3219.00,83.45
3218.00,83.51
3217.00,83.57
3216.00,83.62
3215.00,83.68
3214.00,83.74
3213.00,83.80
3212.00,83.86
3211.00,83.92
3210.00,83.98
3209.00,84.05
3208.00,84.11
3207.00,84.17
3206.00,84.24
3205.00,84.30
3204.00,84.36
3203.00,84.43
3202.00,84.49
3201.00,84.55
3200.00,84.62
3199.00,84.68
3198.00,84.75
3197.00,84.81
3196.00,84.88
3195.00,84.95
3194.00,85.02
3193.00,85.09
3192.00,85.15
3191.00,85.22
3190.00,85.29
3189.00,85.36
3188.00,85.43
3187.00,85.50
3186.00,85.58
3185.00,85.65
3184.00,85.71
3183.00,85.78
3182.00,85.86
3181.00,85.93
3180.00,86.00
3179.00,86.07
3178.00,86.14
3177.00,86.21
3176.00,86.28
3175.00,86.35
3174.00,86.43
3173.00,86.50
3172.00,86.57
3171.00,86.64
3170.00,86.71
3169.00,86.79
3168.00,86.86
3167.00,86.93
3166.00,87.00
3165.00,87.07
3164.00,87.14
3163.00,87.22
3162.00,87.29
3161.00,87.36
3160.00,87.43
3159.00,87.50
3158.00,87.57
3157.00,87.64
3156.00,87.71
3155.00,87.78
3154.00,87.85
3153.00,87.92
3152.00,87.99
3151.00,88.06
3150.00,88.14
3149.00,88.21
3148.00,88.27
3147.00,88.34
3146.00,88.41
3145.00,88.48
3144.00,88.56
3143.00,88.62
3142.00,88.69
3141.00,88.76
3140.00,88.82
3139.00,88.89
3138.00,88.96
3137.00,89.03
3136.00,89.10
3135.00,89.17
3134.00,89.23
3133.00,89.30
3132.00,89.36
3131.00,89.43
3130.00,89.49
3129.00,89.56
3128.00,89.63
3127.00,89.69
3126.00,89.76
3125.00,89.82
3124.00,89.89
3123.00,89.95
3122.00,90.01
3121.00,90.07
3120.00,90.13
3119.00,90.19
3118.00,90.25
3117.00,90.31
3116.00,90.37
3115.00,90.43
3114.00,90.49
3113.00,90.55
3112.00,90.61
3111.00,90.67
3110.00,90.73
3109.00,90.79
3108.00,90.85
3107.00,90.91
3106.00,90.97
3105.00,91.03
3104.00,91.09
3103.00,91.15
3102.00,91.20
3101.00,91.26
3100.00,91.31
3099.00,91.36
3098.00,91.42
3097.00,91.47
3096.00,91.52
3095.00,91.58
3094.00,91.63
3093.00,91.68
3092.00,91.73
3091.00,91.79
3090.00,91.84
3089.00,91.88
3088.00,91.93
3087.00,91.98
3086.00,92.03
3085.00,92.08
3084.00,92.13
3083.00,92.18
3082.00,92.23
3081.00,92.27
3080.00,92.32
3079.00,92.37
3078.00,92.42
3077.00,92.46
3076.00,92.50
3075.00,92.55
3074.00,92.59
3073.00,92.64
3072.00,92.69
3071.00,92.73
3070.00,92.77
3069.00,92.82
3068.00,92.86
3067.00,92.90
3066.00,92.95
3065.00,92.99
3064.00,93.03
3063.00,93.07
3062.00,93.11
3061.00,93.15
3060.00,93.19
3059.00,93.23
3058.00,93.27
3057.00,93.31
3056.00,93.35
3055.00,93.39
3054.00,93.43
3053.00,93.47
3052.00,93.50
3051.00,93.54
3050.00,93.57
3049.00,93.61
3048.00,93.65
3047.00,93.69
3046.00,93.72
3045.00,93.75
3044.00,93.79
3043.00,93.82
3042.00,93.85
3041.00,93.88
3040.00,93.92
3039.00,93.95
3038.00,93.98
3037.00,94.01
3036.00,94.04
3035.00,94.07
3034.00,94.10
3033.00,94.13
3032.00,94.16
3031.00,94.19
3030.00,94.22
3029.00,94.24
3028.00,94.27
3027.00,94.30
3026.00,94.33
3025.00,94.35
3024.00,94.38
3023.00,94.41
3022.00,94.44
3021.00,94.47
3020.00,94.50
3019.00,94.53
3018.00,94.56
3017.00,94.59
3016.00,94.61
3015.00,94.64
3014.00,94.66
3013.00,94.68
3012.00,94.71
3011.00,94.73
3010.00,94.74
3009.00,94.76
3008.00,94.78
3007.00,94.81
3006.00,94.83
3005.00,94.85
3004.00,94.87
3003.00,94.89
3002.00,94.90
3001.00,94.92
3000.00,94.93
2999.00,94.95
2998.00,94.96
2997.00,94.97
2996.00,94.98
2995.00,94.99
2994.00,94.99
2993.00,95.00
2992.00,95.01
2991.00,95.01
2990.00,95.01
2989.00,95.01
2988.00,95.00
2987.00,94.99
2986.00,94.98
2985.00,94.96
2984.00,94.94
2983.00,94.92
2982.00,94.90
2981.00,94.86
2980.00,94.82
2979.00,94.78
2978.00,94.72
2977.00,94.66
2976.00,94.59
2975.00,94.51
2974.00,94.42
2973.00,94.31
2972.00,94.20
2971.00,94.07
2970.00,93.93
2969.00,93.77
2968.00,93.58
2967.00,93.38
2966.00,93.16
2965.00,92.92
2964.00,92.66
2963.00,92.38
2962.00,92.08
2961.00,91.75
2960.00,91.39
2959.00,91.01
2958.00,90.61
2957.00,90.19
2956.00,89.75
2955.00,89.28
2954.00,88.80
2953.00,88.29
2952.00,87.77
2951.00,87.23
2950.00,86.68
2949.00,86.12
2948.00,85.55
2947.00,84.98
2946.00,84.41
2945.00,83.85
2944.00,83.30
2943.00,82.76
2942.00,82.24
2941.00,81.75
2940.00,81.29
2939.00,80.87
2938.00,80.49
2937.00,80.15
2936.00,79.86
2935.00,79.61
2934.00,79.40
2933.00,79.23
2932.00,79.11
2931.00,79.03
2930.00,78.97
2929.00,78.95
2928.00,78.96
2927.00,78.98
2926.00,79.03
2925.00,79.08
2924.00,79.14
2923.00,79.20
2922.00,79.26
2921.00,79.31
2920.00,79.35
2919.00,79.39
2918.00,79.40
2917.00,79.40
2916.00,79.39
2915.00,79.36
2914.00,79.31
2913.00,79.25
2912.00,79.18
2911.00,79.12
2910.00,79.07
2909.00,79.04
2908.00,79.03
2907.00,79.04
2906.00,79.10
2905.00,79.20
2904.00,79.34
2903.00,79.53
2902.00,79.77
2901.00,80.05
2900.00,80.37
2899.00,80.73
2898.00,81.11
2897.00,81.52
2896.00,81.94
2895.00,82.37
2894.00,82.80
2893.00,83.22
2892.00,83.62
2891.00,84.00
2890.00,84.36
2889.00,84.69
2888.00,84.99
2887.00,85.27
2886.00,85.51
2885.00,85.73
2884.00,85.93
2883.00,86.10
2882.00,86.24
2881.00,86.37
2880.00,86.47
2879.00,86.56
2878.00,86.62
2877.00,86.66
2876.00,86.67
2875.00,86.67
2874.00,86.65
2873.00,86.61
2872.00,86.55
2871.00,86.48
2870.00,86.38
2869.00,86.27
2868.00,86.15
2867.00,86.00
2866.00,85.84
2865.00,85.67
2864.00,85.48
2863.00,85.29
2862.00,85.09
2861.00,84.89
2860.00,84.70
2859.00,84.51
2858.00,84.34
2857.00,84.19
2856.00,84.07
2855.00,83.98
2854.00,83.94
2853.00,83.94
2852.00,84.00
2851.00,84.10
2850.00,84.25
2849.00,84.44
2848.00,84.67
2847.00,84.92
2846.00,85.20
2845.00,85.48
2844.00,85.77
2843.00,86.05
2842.00,86.34
2841.00,86.61
2840.00,86.88
2839.00,87.14
2838.00,87.39
2837.00,87.63
2836.00,87.86
2835.00,88.08
2834.00,88.29
2833.00,88.50
2832.00,88.71
2831.00,88.91
2830.00,89.11
2829.00,89.30
2828.00,89.49
2827.00,89.66
2826.00,89.83
2825.00,89.99
2824.00,90.14
2823.00,90.28
2822.00,90.42
2821.00,90.55
2820.00,90.67
2819.00,90.79
2818.00,90.91
2817.00,91.02
2816.00,91.14
2815.00,91.24
2814.00,91.35
2813.00,91.45
2812.00,91.55
2811.00,91.65
2810.00,91.74
2809.00,91.83
2808.00,91.92
2807.00,92.01
2806.00,92.10
2805.00,92.18
2804.00,92.26
2803.00,92.34
2802.00,92.42
2801.00,92.49
2800.00,92.56
2799.00,92.63
2798.00,92.69
2797.00,92.75
2796.00,92.81
2795.00,92.86
2794.00,92.92
2793.00,92.97
2792.00,93.02
2791.00,93.07
2790.00,93.12
2789.00,93.16
2788.00,93.21
2787.00,93.25
2786.00,93.28
2785.00,93.32
2784.00,93.35
2783.00,93.39
2782.00,93.42
2781.00,93.45
2780.00,93.48
2779.00,93.51
2778.00,93.54
2777.00,93.57
2776.00,93.59
2775.00,93.62
2774.00,93.64
2773.00,93.66
2772.00,93.68
2771.00,93.70
2770.00,93.72
2769.00,93.74
2768.00,93.76
2767.00,93.77
2766.00,93.79
2765.00,93.80
2764.00,93.82
2763.00,93.83
2762.00,93.84
2761.00,93.85
2760.00,93.86
2759.00,93.88
2758.00,93.89
2757.00,93.90
2756.00,93.91
2755.00,93.92
2754.00,93.93
2753.00,93.94
2752.00,93.95
2751.00,93.96
2750.00,93.97
2749.00,93.98
2748.00,93.99
2747.00,94.00
2746.00,94.01
2745.00,94.02
2744.00,94.03
2743.00,94.04
2742.00,94.05
2741.00,94.06
2740.00,94.08
2739.00,94.09
2738.00,94.10
2737.00,94.11
2736.00,94.12
2735.00,94.13
2734.00,94.15
2733.00,94.16
2732.00,94.17
2731.00,94.18
2730.00,94.20
2729.00,94.21
2728.00,94.22
2727.00,94.24
2726.00,94.25
2725.00,94.26
2724.00,94.27
2723.00,94.29
2722.00,94.30
2721.00,94.31
2720.00,94.32
2719.00,94.33
2718.00,94.34
2717.00,94.35
2716.00,94.36
2715.00,94.37
2714.00,94.38
2713.00,94.38
2712.00,94.39
2711.00,94.40
2710.00,94.41
2709.00,94.41
2708.00,94.42
2707.00,94.42
2706.00,94.43
2705.00,94.43
2704.00,94.43
2703.00,94.43
2702.00,94.44
2701.00,94.44
2700.00,94.44
2699.00,94.44
2698.00,94.45
2697.00,94.45
2696.00,94.45
2695.00,94.45
2694.00,94.46
2693.00,94.46
2692.00,94.47
2691.00,94.47
2690.00,94.47
2689.00,94.48
2688.00,94.48
2687.00,94.49
2686.00,94.49
2685.00,94.49
2684.00,94.50
2683.00,94.50
2682.00,94.51
2681.00,94.51
2680.00,94.52
2679.00,94.52
2678.00,94.53
2677.00,94.53
2676.00,94.54
2675.00,94.55
2674.00,94.56
2673.00,94.56
2672.00,94.57
2671.00,94.58
2670.00,94.59
2669.00,94.60
2668.00,94.60
2667.00,94.61
2666.00,94.62
2665.00,94.62
2664.00,94.63
2663.00,94.63
2662.00,94.62
2661.00,94.62
2660.00,94.62
2659.00,94.63
2658.00,94.63
2657.00,94.63
2656.00,94.64
2655.00,94.64
2654.00,94.65
2653.00,94.65
2652.00,94.66
2651.00,94.67
2650.00,94.67
2649.00,94.68
2648.00,94.69
2647.00,94.70
2646.00,94.71
2645.00,94.72
2644.00,94.72
2643.00,94.73
2642.00,94.74
2641.00,94.75
2640.00,94.76
2639.00,94.77
2638.00,94.79
2637.00,94.79
2636.00,94.80
2635.00,94.81
2634.00,94.82
2633.00,94.82
2632.00,94.84
2631.00,94.85
2630.00,94.86
2629.00,94.87
2628.00,94.88
2627.00,94.88
2626.00,94.89
2625.00,94.90
2624.00,94.92
2623.00,94.93
2622.00,94.94
2621.00,94.95
2620.00,94.96
2619.00,94.97
2618.00,94.98
2617.00,95.00
2616.00,95.01
2615.00,95.02
2614.00,95.03
2613.00,95.04
2612.00,95.05
2611.00,95.06
2610.00,95.07
2609.00,95.08
2608.00,95.09
2607.00,95.10
2606.00,95.11
2605.00,95.12
2604.00,95.13
2603.00,95.15
2602.00,95.16
2601.00,95.17
2600.00,95.17
2599.00,95.18
2598.00,95.20
2597.00,95.21
2596.00,95.22
2595.00,95.23
2594.00,95.23
2593.00,95.24
2592.00,95.24
2591.00,95.25
2590.00,95.26
2589.00,95.27
2588.00,95.28
2587.00,95.29
2586.00,95.30
2585.00,95.31
2584.00,95.32
2583.00,95.32
2582.00,95.33
2581.00,95.33
2580.00,95.34
2579.00,95.34
2578.00,95.35
2577.00,95.36
2576.00,95.38
2575.00,95.39
2574.00,95.40
2573.00,95.40
2572.00,95.41
2571.00,95.41
2570.00,95.42
2569.00,95.43
2568.00,95.43
2567.00,95.44
2566.00,95.45
2565.00,95.46
2564.00,95.46
2563.00,95.47
2562.00,95.47
2561.00,95.48
2560.00,95.48
2559.00,95.49
2558.00,95.49
2557.00,95.50
2556.00,95.50
2555.00,95.50
2554.00,95.50
2553.00,95.51
2552.00,95.51
2551.00,95.52
2550.00,95.52
2549.00,95.53
2548.00,95.53
2547.00,95.54
2546.00,95.54
2545.00,95.54
2544.00,95.55
2543.00,95.55
2542.00,95.55
2541.00,95.56
2540.00,95.56
2539.00,95.57
2538.00,95.57
2537.00,95.57
2536.00,95.58
2535.00,95.59
2534.00,95.59
2533.00,95.60
2532.00,95.60
2531.00,95.60
2530.00,95.60
2529.00,95.61
2528.00,95.61
2527.00,95.62
2526.00,95.63
2525.00,95.63
2524.00,95.64
2523.00,95.64
2522.00,95.64
2521.00,95.64
2520.00,95.65
2519.00,95.66
2518.00,95.66
2517.00,95.67
2516.00,95.68
2515.00,95.68
2514.00,95.69
2513.00,95.69
2512.00,95.70
2511.00,95.70
2510.00,95.71
2509.00,95.72
2508.00,95.73
2507.00,95.73
2506.00,95.74
2505.00,95.74
2504.00,95.74
2503.00,95.75
2502.00,95.75
2501.00,95.75
2500.00,95.76
2499.00,95.76
2498.00,95.77
2497.00,95.78
2496.00,95.78
2495.00,95.79
2494.00,95.79
2493.00,95.80
2492.00,95.80
2491.00,95.81
2490.00,95.82
2489.00,95.82
2488.00,95.82
2487.00,95.83
2486.00,95.84
2485.00,95.84
2484.00,95.85
2483.00,95.86
2482.00,95.86
2481.00,95.87
2480.00,95.87
2479.00,95.87
2478.00,95.87
2477.00,95.88
2476.00,95.89
2475.00,95.90
2474.00,95.91
2473.00,95.91
2472.00,95.91
2471.00,95.92
2470.00,95.92
2469.00,95.92
2468.00,95.92
2467.00,95.92
2466.00,95.92
2465.00,95.92
2464.00,95.93
2463.00,95.93
2462.00,95.93
2461.00,95.94
2460.00,95.94
2459.00,95.94
2458.00,95.94
2457.00,95.94
2456.00,95.93
2455.00,95.93
2454.00,95.93
2453.00,95.93
2452.00,95.94
2451.00,95.95
2450.00,95.95
2449.00,95.96
2448.00,95.96
2447.00,95.96
2446.00,95.97
2445.00,95.97
2444.00,95.97
2443.00,95.97
2442.00,95.98
2441.00,95.98
2440.00,95.99
2439.00,96.00
2438.00,96.00
2437.00,96.01
2436.00,96.01
2435.00,96.01
2434.00,96.02
2433.00,96.02
2432.00,96.02
2431.00,96.02
2430.00,96.03
2429.00,96.03
2428.00,96.04
2427.00,96.05
2426.00,96.05
2425.00,96.06
2424.00,96.06
2423.00,96.06
2422.00,96.06
2421.00,96.06
2420.00,96.07
2419.00,96.07
2418.00,96.08
2417.00,96.08
2416.00,96.08
2415.00,96.09
2414.00,96.09
2413.00,96.09
2412.00,96.10
2411.00,96.10
2410.00,96.11
2409.00,96.11
2408.00,96.12
2407.00,96.13
2406.00,96.14
2405.00,96.15
2404.00,96.16
2403.00,96.16
2402.00,96.17
2401.00,96.17
2400.00,96.18
2399.00,96.18
2398.00,96.18
2397.00,96.18
2396.00,96.18
2395.00,96.19
2394.00,96.19
2393.00,96.19
2392.00,96.20
2391.00,96.20
2390.00,96.21
2389.00,96.21
2388.00,96.22
2387.00,96.22
2386.00,96.23
2385.00,96.24
2384.00,96.25
2383.00,96.25
2382.00,96.26
2381.00,96.27
2380.00,96.28
2379.00,96.29
2378.00,96.30
2377.00,96.31
2376.00,96.32
2375.00,96.32
2374.00,96.34
2373.00,96.35
2372.00,96.36
2371.00,96.36
2370.00,96.35
2369.00,96.34
2368.00,96.33
2367.00,96.33
2366.00,96.34
2365.00,96.35
2364.00,96.34
2363.00,96.34
2362.00,96.34
2361.00,96.35
2360.00,96.34
2359.00,96.34
2358.00,96.33
2357.00,96.32
2356.00,96.32
2355.00,96.33
2354.00,96.34
2353.00,96.35
2352.00,96.36
2351.00,96.37
2350.00,96.37
2349.00,96.37
2348.00,96.37
2347.00,96.38
2346.00,96.38
2345.00,96.37
2344.00,96.35
2343.00,96.32
2342.00,96.30
2341.00,96.29
2340.00,96.28
2339.00,96.27
2338.00,96.27
2337.00,96.26
2336.00,96.26
2335.00,96.26
2334.00,96.27
2333.00,96.27
2332.00,96.28
2331.00,96.28
2330.00,96.28
2329.00,96.27
2328.00,96.25
2327.00,96.20
2326.00,96.14
2325.00,96.06
2324.00,96.01
2323.00,95.98
2322.00,95.99
2321.00,96.02
2320.00,96.04
2319.00,96.07
2318.00,96.10
2317.00,96.12
2316.00,96.13
2315.00,96.13
2314.00,96.13
2313.00,96.13
2312.00,96.13
2311.00,96.13
2310.00,96.13
2309.00,96.13
2308.00,96.12
2307.00,96.12
2306.00,96.12
2305.00,96.12
2304.00,96.12
2303.00,96.12
2302.00,96.12
2301.00,96.12
2300.00,96.11
2299.00,96.10
2298.00,96.09
2297.00,96.09
2296.00,96.08
2295.00,96.07
2294.00,96.06
2293.00,96.04
2292.00,96.02
2291.00,96.00
2290.00,95.98
2289.00,95.97
2288.00,95.95
2287.00,95.94
2286.00,95.93
2285.00,95.93
2284.00,95.93
2283.00,95.94
2282.00,95.95
2281.00,95.96
2280.00,95.97
2279.00,95.98
2278.00,95.99
2277.00,95.99
2276.00,96.00
2275.00,96.00
2274.00,96.00
2273.00,96.00
2272.00,96.00
2271.00,96.00
2270.00,96.00
2269.00,96.00
2268.00,96.00
2267.00,96.01
2266.00,96.02
2265.00,96.02
2264.00,96.02
2263.00,96.02
2262.00,96.03
2261.00,96.02
2260.00,96.02
2259.00,96.01
2258.00,96.00
2257.00,96.00
2256.00,96.01
2255.00,96.03
2254.00,96.05
2253.00,96.07
2252.00,96.07
2251.00,96.07
2250.00,96.06
2249.00,96.05
2248.00,96.03
2247.00,96.02
2246.00,96.02
2245.00,96.03
2244.00,96.03
2243.00,96.03
2242.00,96.03
2241.00,96.02
2240.00,96.01
2239.00,96.00
2238.00,96.00
2237.00,96.01
2236.00,96.02
2235.00,96.02
2234.00,96.01
2233.00,96.01
2232.00,96.02
2231.00,96.02
2230.00,96.02
2229.00,96.01
2228.00,96.01
2227.00,96.00
2226.00,96.00
2225.00,96.01
2224.00,96.01
2223.00,96.01
2222.00,96.01
2221.00,96.01
2220.00,96.01
2219.00,96.00
2218.00,96.00
2217.00,95.99
2216.00,95.99
2215.00,95.99
2214.00,95.98
2213.00,95.98
2212.00,95.98
2211.00,95.99
2210.00,95.99
2209.00,95.99
2208.00,95.98
2207.00,95.98
2206.00,95.97
2205.00,95.97
2204.00,95.97
2203.00,95.96
2202.00,95.95
2201.00,95.94
2200.00,95.93
2199.00,95.91
2198.00,95.90
2197.00,95.90
2196.00,95.89
2195.00,95.88
2194.00,95.88
2193.00,95.87
2192.00,95.87
2191.00,95.86
2190.00,95.85
2189.00,95.84
2188.00,95.82
2187.00,95.81
2186.00,95.81
2185.00,95.80
2184.00,95.81
2183.00,95.84
2182.00,95.87
2181.00,95.89
2180.00,95.90
2179.00,95.88
2178.00,95.86
2177.00,95.85
2176.00,95.87
2175.00,95.90
2174.00,95.92
2173.00,95.91
2172.00,95.89
2171.00,95.85
2170.00,95.80
2169.00,95.74
2168.00,95.67
2167.00,95.62
2166.00,95.58
2165.00,95.56
2164.00,95.54
2163.00,95.52
2162.00,95.50
2161.00,95.55
2160.00,95.70
2159.00,95.94
2158.00,96.18
2157.00,96.34
2156.00,96.40
2155.00,96.40
2154.00,96.37
2153.00,96.32
2152.00,96.28
2151.00,96.24
2150.00,96.22
2149.00,96.22
2148.00,96.22
2147.00,96.24
2146.00,96.26
2145.00,96.27
2144.00,96.26
2143.00,96.26
2142.00,96.27
2141.00,96.28
2140.00,96.29
2139.00,96.31
2138.00,96.32
2137.00,96.34
2136.00,96.37
2135.00,96.41
2134.00,96.45
2133.00,96.46
2132.00,96.46
2131.00,96.45
2130.00,96.43
2129.00,96.41
2128.00,96.38
2127.00,96.35
2126.00,96.32
2125.00,96.30
2124.00,96.27
2123.00,96.25
2122.00,96.24
2121.00,96.22
2120.00,96.21
2119.00,96.21
2118.00,96.20
2117.00,96.18
2116.00,96.16
2115.00,96.12
2114.00,96.10
2113.00,96.09
2112.00,96.09
2111.00,96.09
2110.00,96.09
2109.00,96.10
2108.00,96.10
2107.00,96.10
2106.00,96.10
2105.00,96.08
2104.00,96.08
2103.00,96.08
2102.00,96.09
2101.00,96.09
2100.00,96.10
2099.00,96.10
2098.00,96.11
2097.00,96.13
2096.00,96.16
2095.00,96.20
2094.00,96.23
2093.00,96.23
2092.00,96.21
2091.00,96.18
2090.00,96.16
2089.00,96.14
2088.00,96.13
2087.00,96.12
2086.00,96.11
2085.00,96.10
2084.00,96.09
2083.00,96.08
2082.00,96.08
2081.00,96.07
2080.00,96.06
2079.00,96.05
2078.00,96.05
2077.00,96.04
2076.00,96.03
2075.00,96.03
2074.00,96.04
2073.00,96.05
2072.00,96.05
2071.00,96.06
2070.00,96.06
2069.00,96.06
2068.00,96.05
2067.00,96.04
2066.00,96.04
2065.00,96.05
2064.00,96.05
2063.00,96.06
2062.00,96.07
2061.00,96.07
2060.00,96.06
2059.00,96.05
2058.00,96.04
2057.00,96.02
2056.00,96.01
2055.00,96.01
2054.00,96.00
2053.00,95.95
2052.00,95.88
2051.00,95.81
2050.00,95.79
2049.00,95.80
2048.00,95.84
2047.00,95.88
2046.00,95.90
2045.00,95.90
2044.00,95.89
2043.00,95.88
2042.00,95.88
2041.00,95.87
2040.00,95.86
2039.00,95.85
2038.00,95.84
2037.00,95.83
2036.00,95.83
2035.00,95.84
2034.00,95.87
2033.00,95.90
2032.00,95.93
2031.00,95.95
2030.00,95.96
2029.00,95.96
2028.00,95.96
2027.00,95.96
2026.00,95.97
2025.00,95.97
2024.00,95.98
2023.00,96.00
2022.00,96.01
2021.00,96.02
2020.00,96.01
2019.00,96.01
2018.00,96.01
2017.00,96.00
2016.00,95.99
2015.00,95.98
2014.00,95.98
2013.00,95.98
2012.00,95.97
2011.00,95.96
2010.00,95.97
2009.00,95.99
2008.00,96.02
2007.00,96.08
2006.00,96.13
2005.00,96.16
2004.00,96.16
2003.00,96.15
2002.00,96.12
2001.00,96.09
2000.00,96.07
1999.00,96.05
1998.00,96.05
1997.00,96.04
1996.00,96.04
1995.00,96.03
1994.00,96.00
1993.00,95.97
1992.00,95.95
1991.00,95.95
1990.00,95.95
1989.00,95.94
1988.00,95.93
1987.00,95.92
1986.00,95.91
1985.00,95.88
1984.00,95.85
1983.00,95.80
1982.00,95.73
1981.00,95.66
1980.00,95.62
1979.00,95.65
1978.00,95.74
1977.00,95.86
1976.00,95.95
1975.00,96.01
1974.00,96.04
1973.00,96.05
1972.00,96.05
1971.00,96.06
1970.00,96.07
1969.00,96.08
1968.00,96.07
1967.00,96.07
1966.00,96.07
1965.00,96.07
1964.00,96.08
1963.00,96.09
1962.00,96.11
1961.00,96.13
1960.00,96.15
1959.00,96.19
1958.00,96.21
1957.00,96.21
1956.00,96.19
1955.00,96.17
1954.00,96.15
1953.00,96.14
1952.00,96.13
1951.00,96.13
1950.00,96.14
1949.00,96.14
1948.00,96.14
1947.00,96.15
1946.00,96.15
1945.00,96.16
1944.00,96.16
1943.00,96.16
1942.00,96.16
1941.00,96.17
1940.00,96.17
1939.00,96.17
1938.00,96.18
1937.00,96.18
1936.00,96.19
1935.00,96.19
1934.00,96.19
1933.00,96.19
1932.00,96.19
1931.00,96.18
1930.00,96.18
1929.00,96.18
1928.00,96.18
1927.00,96.19
1926.00,96.20
1925.00,96.20
1924.00,96.20
1923.00,96.20
1922.00,96.19
1921.00,96.18
1920.00,96.17
1919.00,96.16
1918.00,96.16
1917.00,96.16
1916.00,96.16
1915.00,96.17
1914.00,96.17
1913.00,96.18
1912.00,96.18
1911.00,96.18
1910.00,96.19
1909.00,96.19
1908.00,96.19
1907.00,96.20
1906.00,96.21
1905.00,96.21
1904.00,96.21
1903.00,96.21
1902.00,96.20
1901.00,96.19
1900.00,96.19
1899.00,96.19
1898.00,96.19
1897.00,96.20
1896.00,96.20
1895.00,96.19
1894.00,96.19
1893.00,96.19
1892.00,96.19
1891.00,96.20
1890.00,96.21
1889.00,96.21
1888.00,96.21
1887.00,96.21
1886.00,96.21
1885.00,96.22
1884.00,96.22
1883.00,96.22
1882.00,96.22
1881.00,96.22
1880.00,96.22
1879.00,96.22
1878.00,96.23
1877.00,96.24
1876.00,96.24
1875.00,96.24
1874.00,96.24
1873.00,96.24
1872.00,96.24
1871.00,96.24
1870.00,96.25
1869.00,96.25
1868.00,96.25
1867.00,96.25
1866.00,96.24
1865.00,96.24
1864.00,96.24
1863.00,96.24
1862.00,96.24
1861.00,96.26
1860.00,96.26
1859.00,96.27
1858.00,96.27
1857.00,96.26
1856.00,96.26
1855.00,96.26
1854.00,96.27
1853.00,96.27
1852.00,96.27
1851.00,96.28
1850.00,96.28
1849.00,96.28
1848.00,96.27
1847.00,96.27
1846.00,96.27
1845.00,96.27
1844.00,96.27
1843.00,96.28
1842.00,96.29
1841.00,96.29
1840.00,96.29
1839.00,96.28
1838.00,96.28
1837.00,96.28
1836.00,96.28
1835.00,96.28
1834.00,96.28
1833.00,96.29
1832.00,96.29
1831.00,96.29
1830.00,96.29
1829.00,96.29
1828.00,96.28
1827.00,96.28
1826.00,96.28
1825.00,96.28
1824.00,96.28
1823.00,96.28
1822.00,96.29
1821.00,96.29
1820.00,96.30
1819.00,96.32
1818.00,96.35
1817.00,96.36
1816.00,96.36
1815.00,96.36
1814.00,96.35
1813.00,96.34
1812.00,96.33
1811.00,96.32
1810.00,96.32
1809.00,96.32
1808.00,96.32
1807.00,96.32
1806.00,96.32
1805.00,96.32
1804.00,96.32
1803.00,96.32
1802.00,96.32
1801.00,96.32
1800.00,96.31
1799.00,96.31
1798.00,96.31
1797.00,96.30
1796.00,96.29
1795.00,96.29
1794.00,96.29
1793.00,96.28
1792.00,96.28
1791.00,96.27
1790.00,96.27
1789.00,96.27
1788.00,96.26
1787.00,96.25
1786.00,96.24
1785.00,96.22
1784.00,96.21
1783.00,96.20
1782.00,96.20
1781.00,96.19
1780.00,96.18
1779.00,96.17
1778.00,96.15
1777.00,96.14
1776.00,96.13
1775.00,96.11
1774.00,96.10
1773.00,96.08
1772.00,96.06
1771.00,96.04
1770.00,96.02
1769.00,96.00
1768.00,95.99
1767.00,95.98
1766.00,95.96
1765.00,95.94
1764.00,95.92
1763.00,95.89
1762.00,95.87
1761.00,95.85
1760.00,95.83
1759.00,95.82
1758.00,95.82
1757.00,95.81
1756.00,95.80
1755.00,95.80
1754.00,95.81
1753.00,95.81
1752.00,95.81
1751.00,95.81
1750.00,95.81
1749.00,95.81
1748.00,95.81
1747.00,95.81
1746.00,95.82
1745.00,95.82
1744.00,95.82
1743.00,95.82
1742.00,95.82
1741.00,95.82
1740.00,95.82
1739.00,95.83
1738.00,95.83
1737.00,95.83
1736.00,95.83
1735.00,95.84
1734.00,95.85
1733.00,95.85
1732.00,95.85
1731.00,95.86
1730.00,95.86
1729.00,95.86
1728.00,95.86
1727.00,95.86
1726.00,95.86
1725.00,95.85
1724.00,95.84
1723.00,95.83
1722.00,95.82
1721.00,95.82
1720.00,95.81
1719.00,95.80
1718.00,95.80
1717.00,95.79
1716.00,95.78
1715.00,95.77
1714.00,95.77
1713.00,95.77
1712.00,95.76
1711.00,95.76
1710.00,95.75
1709.00,95.75
1708.00,95.74
1707.00,95.74
1706.00,95.74
1705.00,95.74
1704.00,95.74
1703.00,95.73
1702.00,95.72
1701.00,95.71
1700.00,95.70
1699.00,95.70
1698.00,95.70
1697.00,95.69
1696.00,95.68
1695.00,95.68
1694.00,95.67
1693.00,95.66
1692.00,95.64
1691.00,95.63
1690.00,95.62
1689.00,95.60
1688.00,95.59
1687.00,95.57
1686.00,95.56
1685.00,95.53
1684.00,95.49
1683.00,95.46
1682.00,95.44
1681.00,95.43
1680.00,95.41
1679.00,95.39
1678.00,95.38
1677.00,95.36
1676.00,95.33
1675.00,95.30
1674.00,95.28
1673.00,95.26
1672.00,95.24
1671.00,95.22
1670.00,95.20
1669.00,95.18
1668.00,95.17
1667.00,95.16
1666.00,95.15
1665.00,95.14
1664.00,95.13
1663.00,95.12
1662.00,95.11
1661.00,95.10
1660.00,95.10
1659.00,95.09
1658.00,95.09
1657.00,95.09
1656.00,95.08
1655.00,95.08
1654.00,95.08
1653.00,95.08
1652.00,95.09
1651.00,95.10
1650.00,95.10
1649.00,95.10
1648.00,95.10
1647.00,95.10
1646.00,95.11
1645.00,95.13
1644.00,95.14
1643.00,95.15
1642.00,95.17
1641.00,95.18
1640.00,95.19
1639.00,95.19
1638.00,95.20
1637.00,95.22
1636.00,95.23
1635.00,95.26
1634.00,95.29
1633.00,95.31
1632.00,95.32
1631.00,95.34
1630.00,95.36
1629.00,95.38
1628.00,95.39
1627.00,95.41
1626.00,95.43
1625.00,95.45
1624.00,95.46
1623.00,95.48
1622.00,95.50
1621.00,95.52
1620.00,95.53
1619.00,95.55
1618.00,95.57
1617.00,95.59
1616.00,95.60
1615.00,95.62
1614.00,95.63
1613.00,95.64
1612.00,95.65
1611.00,95.66
1610.00,95.67
1609.00,95.68
1608.00,95.68
1607.00,95.69
1606.00,95.70
1605.00,95.70
1604.00,95.70
1603.00,95.71
1602.00,95.72
1601.00,95.73
1600.00,95.73
1599.00,95.74
1598.00,95.75
1597.00,95.75
1596.00,95.75
1595.00,95.76
1594.00,95.76
1593.00,95.77
1592.00,95.77
1591.00,95.77
1590.00,95.77
1589.00,95.77
1588.00,95.76
1587.00,95.76
1586.00,95.77
1585.00,95.76
1584.00,95.75
1583.00,95.75
1582.00,95.75
1581.00,95.74
1580.00,95.73
1579.00,95.73
1578.00,95.73
1577.00,95.72
1576.00,95.71
1575.00,95.71
1574.00,95.71
1573.00,95.71
1572.00,95.70
1571.00,95.69
1570.00,95.69
1569.00,95.68
1568.00,95.68
1567.00,95.68
1566.00,95.68
1565.00,95.67
1564.00,95.67
1563.00,95.67
1562.00,95.67
1561.00,95.67
1560.00,95.66
1559.00,95.66
1558.00,95.66
1557.00,95.65
1556.00,95.65
1555.00,95.65
1554.00,95.65
1553.00,95.65
1552.00,95.65
1551.00,95.64
1550.00,95.64
1549.00,95.63
1548.00,95.62
1547.00,95.62
1546.00,95.62
1545.00,95.61
1544.00,95.60
1543.00,95.59
1542.00,95.59
1541.00,95.58
1540.00,95.57
1539.00,95.57
1538.00,95.58
1537.00,95.57
1536.00,95.56
1535.00,95.55
1534.00,95.54
1533.00,95.53
1532.00,95.52
1531.00,95.51
1530.00,95.51
1529.00,95.49
1528.00,95.47
1527.00,95.45
1526.00,95.44
1525.00,95.42
1524.00,95.39
1523.00,95.37
1522.00,95.35
1521.00,95.33
1520.00,95.30
1519.00,95.29
1518.00,95.27
1517.00,95.24
1516.00,95.20
1515.00,95.18
1514.00,95.16
1513.00,95.12
1512.00,95.08
1511.00,95.04
1510.00,95.01
1509.00,94.97
1508.00,94.89
1507.00,94.81
1506.00,94.75
1505.00,94.70
1504.00,94.66
1503.00,94.61
1502.00,94.56
1501.00,94.49
1500.00,94.41
1499.00,94.33
1498.00,94.24
1497.00,94.12
1496.00,93.98
1495.00,93.87
1494.00,93.78
1493.00,93.67
1492.00,93.54
1491.00,93.40
1490.00,93.25
1489.00,93.08
1488.00,92.91
1487.00,92.75
1486.00,92.60
1485.00,92.43
1484.00,92.25
1483.00,92.06
1482.00,91.85
1481.00,91.62
1480.00,91.39
1479.00,91.18
1478.00,90.95
1477.00,90.68
1476.00,90.38
1475.00,90.07
1474.00,89.70
1473.00,89.20
1472.00,88.62
1471.00,88.10
1470.00,87.63
1469.00,87.17
1468.00,86.70
1467.00,86.24
1466.00,85.75
1465.00,85.24
1464.00,84.78
1463.00,84.43
1462.00,84.13
1461.00,83.86
1460.00,83.59
1459.00,83.33
1458.00,83.05
1457.00,82.79
1456.00,82.63
1455.00,82.60
1454.00,82.60
1453.00,82.61
1452.00,82.63
1451.00,82.66
1450.00,82.66
1449.00,82.64
1448.00,82.60
1447.00,82.56
1446.00,82.52
1445.00,82.47
1444.00,82.41
1443.00,82.36
1442.00,82.29
1441.00,82.21
1440.00,82.14
1439.00,82.09
1438.00,82.02
1437.00,81.93
1436.00,81.85
1435.00,81.81
1434.00,81.80
1433.00,81.78
1432.00,81.78
1431.00,81.78
1430.00,81.79
1429.00,81.80
1428.00,81.81
1427.00,81.84
1426.00,81.87
1425.00,81.88
1424.00,81.89
1423.00,81.91
1422.00,81.94
1421.00,81.97
1420.00,81.99
1419.00,82.02
1418.00,82.06
1417.00,82.10
1416.00,82.16
1415.00,82.25
1414.00,82.35
1413.00,82.44
1412.00,82.55
1411.00,82.68
1410.00,82.82
1409.00,82.96
1408.00,83.12
1407.00,83.29
1406.00,83.48
1405.00,83.69
1404.00,83.92
1403.00,84.16
1402.00,84.39
1401.00,84.64
1400.00,84.93
1399.00,85.24
1398.00,85.55
1397.00,85.84
1396.00,86.16
1395.00,86.49
1394.00,86.81
1393.00,87.09
1392.00,87.34
1391.00,87.55
1390.00,87.72
1389.00,87.86
1388.00,87.96
1387.00,88.01
1386.00,88.01
1385.00,87.96
1384.00,87.87
1383.00,87.75
1382.00,87.59
1381.00,87.41
1380.00,87.23
1379.00,87.05
1378.00,86.88
1377.00,86.73
1376.00,86.60
1375.00,86.47
1374.00,86.36
1373.00,86.28
1372.00,86.23
1371.00,86.20
1370.00,86.18
1369.00,86.17
1368.00,86.16
1367.00,86.16
1366.00,86.16
1365.00,86.15
1364.00,86.12
1363.00,86.08
1362.00,86.02
1361.00,85.96
1360.00,85.89
1359.00,85.81
1358.00,85.72
1357.00,85.61
1356.00,85.49
1355.00,85.35
1354.00,85.20
1353.00,85.04
1352.00,84.88
1351.00,84.72
1350.00,84.54
1349.00,84.36
1348.00,84.18
1347.00,83.99
1346.00,83.81
1345.00,83.62
1344.00,83.45
1343.00,83.27
1342.00,83.10
1341.00,82.92
1340.00,82.73
1339.00,82.55
1338.00,82.39
1337.00,82.26
1336.00,82.15
1335.00,82.05
1334.00,81.96
1333.00,81.88
1332.00,81.80
1331.00,81.73
1330.00,81.67
1329.00,81.63
1328.00,81.60
1327.00,81.58
1326.00,81.58
1325.00,81.59
1324.00,81.61
1323.00,81.64
1322.00,81.69
1321.00,81.75
1320.00,81.81
1319.00,81.88
1318.00,81.97
1317.00,82.07
1316.00,82.17
1315.00,82.29
1314.00,82.40
1313.00,82.52
1312.00,82.64
1311.00,82.75
1310.00,82.87
1309.00,82.98
1308.00,83.10
1307.00,83.21
1306.00,83.32
1305.00,83.43
1304.00,83.54
1303.00,83.65
1302.00,83.76
1301.00,83.86
1300.00,83.97
1299.00,84.09
1298.00,84.20
1297.00,84.32
1296.00,84.43
1295.00,84.55
1294.00,84.68
1293.00,84.80
1292.00,84.92
1291.00,85.05
1290.00,85.17
1289.00,85.29
1288.00,85.40
1287.00,85.52
1286.00,85.63
1285.00,85.74
1284.00,85.84
1283.00,85.95
1282.00,86.04
1281.00,86.14
1280.00,86.23
1279.00,86.32
1278.00,86.40
1277.00,86.48
1276.00,86.56
1275.00,86.64
1274.00,86.73
1273.00,86.81
1272.00,86.89
1271.00,86.98
1270.00,87.06
1269.00,87.14
1268.00,87.23
1267.00,87.32
1266.00,87.41
1265.00,87.50
1264.00,87.60
1263.00,87.69
1262.00,87.80
1261.00,87.90
1260.00,88.01
1259.00,88.13
1258.00,88.24
1257.00,88.36
1256.00,88.49
1255.00,88.61
1254.00,88.73
1253.00,88.85
1252.00,88.97
1251.00,89.07
1250.00,89.18
1249.00,89.27
1248.00,89.36
1247.00,89.43
1246.00,89.49
1245.00,89.53
1244.00,89.57
1243.00,89.60
1242.00,89.62
1241.00,89.63
1240.00,89.63
1239.00,89.63
1238.00,89.62
1237.00,89.60
1236.00,89.59
1235.00,89.57
1234.00,89.56
1233.00,89.54
1232.00,89.52
1231.00,89.49
1230.00,89.47
1229.00,89.44
1228.00,89.42
1227.00,89.40
1226.00,89.38
1225.00,89.37
1224.00,89.37
1223.00,89.38
1222.00,89.39
1221.00,89.40
1220.00,89.41
1219.00,89.42
1218.00,89.42
1217.00,89.44
1216.00,89.46
1215.00,89.48
1214.00,89.49
1213.00,89.51
1212.00,89.53
1211.00,89.55
1210.00,89.57
1209.00,89.60
1208.00,89.62
1207.00,89.65
1206.00,89.67
1205.00,89.70
1204.00,89.73
1203.00,89.75
1202.00,89.77
1201.00,89.79
1200.00,89.81
1199.00,89.82
1198.00,89.83
1197.00,89.85
1196.00,89.86
1195.00,89.87
1194.00,89.88
1193.00,89.88
1192.00,89.89
1191.00,89.90
1190.00,89.92
1189.00,89.93
1188.00,89.94
1187.00,89.95
1186.00,89.97
1185.00,89.99
1184.00,90.02
1183.00,90.05
1182.00,90.08
1181.00,90.10
1180.00,90.13
1179.00,90.17
1178.00,90.20
1177.00,90.24
1176.00,90.28
1175.00,90.31
1174.00,90.35
1173.00,90.37
1172.00,90.40
1171.00,90.42
1170.00,90.44
1169.00,90.46
1168.00,90.48
1167.00,90.49
1166.00,90.49
1165.00,90.48
1164.00,90.46
1163.00,90.44
1162.00,90.39
1161.00,90.34
1160.00,90.26
1159.00,90.14
1158.00,89.99
1157.00,89.81
1156.00,89.57
1155.00,89.28
1154.00,88.93
1153.00,88.51
1152.00,88.02
1151.00,87.46
1150.00,86.82
1149.00,86.13
1148.00,85.39
1147.00,84.62
1146.00,83.83
1145.00,83.05
1144.00,82.31
1143.00,81.63
1142.00,81.03
1141.00,80.53
1140.00,80.13
1139.00,79.84
1138.00,79.63
1137.00,79.50
1136.00,79.42
1135.00,79.37
1134.00,79.35
1133.00,79.33
1132.00,79.29
1131.00,79.24
1130.00,79.16
1129.00,79.06
1128.00,78.94
1127.00,78.80
1126.00,78.64
1125.00,78.45
1124.00,78.24
1123.00,78.03
1122.00,77.81
1121.00,77.59
1120.00,77.36
1119.00,77.15
1118.00,76.95
1117.00,76.77
1116.00,76.59
1115.00,76.43
1114.00,76.29
1113.00,76.16
1112.00,76.03
1111.00,75.93
1110.00,75.83
1109.00,75.72
1108.00,75.61
1107.00,75.49
1106.00,75.36
1105.00,75.22
1104.00,75.05
1103.00,74.87
1102.00,74.69
1101.00,74.48
1100.00,74.26
1099.00,74.04
1098.00,73.82
1097.00,73.59
1096.00,73.37
1095.00,73.15
1094.00,72.95
1093.00,72.77
1092.00,72.59
1091.00,72.45
1090.00,72.33
1089.00,72.22
1088.00,72.14
1087.00,72.08
1086.00,72.04
1085.00,72.01
1084.00,71.99
1083.00,71.99
1082.00,72.01
1081.00,72.03
1080.00,72.06
1079.00,72.10
1078.00,72.16
1077.00,72.21
1076.00,72.27
1075.00,72.34
1074.00,72.42
1073.00,72.51
1072.00,72.61
1071.00,72.70
1070.00,72.81
1069.00,72.91
1068.00,73.02
1067.00,73.14
1066.00,73.27
1065.00,73.41
1064.00,73.56
1063.00,73.71
1062.00,73.88
1061.00,74.04
1060.00,74.19
1059.00,74.34
1058.00,74.48
1057.00,74.61
1056.00,74.74
1055.00,74.85
1054.00,74.96
1053.00,75.06
1052.00,75.14
1051.00,75.23
1050.00,75.31
1049.00,75.39
1048.00,75.44
1047.00,75.49
1046.00,75.54
1045.00,75.59
1044.00,75.63
1043.00,75.67
1042.00,75.73
1041.00,75.79
1040.00,75.85
1039.00,75.91
1038.00,75.97
1037.00,76.03
1036.00,76.09
1035.00,76.15
1034.00,76.22
1033.00,76.28
1032.00,76.33
1031.00,76.39
1030.00,76.44
1029.00,76.49
1028.00,76.53
1027.00,76.58
1026.00,76.62
1025.00,76.66
1024.00,76.70
1023.00,76.75
1022.00,76.80
1021.00,76.85
1020.00,76.90
1019.00,76.96
1018.00,77.03
1017.00,77.11
1016.00,77.19
1015.00,77.28
1014.00,77.37
1013.00,77.47
1012.00,77.57
1011.00,77.68
1010.00,77.81
1009.00,77.94
1008.00,78.07
1007.00,78.21
1006.00,78.34
1005.00,78.47
1004.00,78.60
1003.00,78.72
1002.00,78.85
1001.00,78.98
1000.00,79.11
999.00,79.22
998.00,79.34
997.00,79.44
996.00,79.55
995.00,79.65
994.00,79.76
993.00,79.86
992.00,79.96
991.00,80.05
990.00,80.15
989.00,80.25
988.00,80.36
987.00,80.48
986.00,80.60
985.00,80.72
984.00,80.84
983.00,80.96
982.00,81.09
981.00,81.22
980.00,81.36
979.00,81.49
978.00,81.64
977.00,81.78
976.00,81.91
975.00,82.05
974.00,82.19
973.00,82.32
972.00,82.45
971.00,82.58
970.00,82.71
969.00,82.83
968.00,82.96
967.00,83.08
966.00,83.20
965.00,83.31
964.00,83.42
963.00,83.54
962.00,83.65
961.00,83.76
960.00,83.86
959.00,83.96
958.00,84.06
957.00,84.16
956.00,84.25
955.00,84.33
954.00,84.42
953.00,84.50
952.00,84.58
951.00,84.66
950.00,84.72
949.00,84.78
948.00,84.84
947.00,84.90
946.00,84.94
945.00,84.98
944.00,85.01
943.00,85.04
942.00,85.06
941.00,85.09
940.00,85.11
939.00,85.12
938.00,85.13
937.00,85.13
936.00,85.14
935.00,85.14
934.00,85.13
933.00,85.12
932.00,85.10
931.00,85.08
930.00,85.05
929.00,85.03
928.00,85.00
927.00,84.97
926.00,84.94
925.00,84.91
924.00,84.88
923.00,84.85
922.00,84.80
921.00,84.76
920.00,84.71
919.00,84.67
918.00,84.63
917.00,84.59
916.00,84.54
915.00,84.51
914.00,84.49
913.00,84.48
912.00,84.45
911.00,84.43
910.00,84.41
909.00,84.38
908.00,84.36
907.00,84.35
906.00,84.34
905.00,84.32
904.00,84.30
903.00,84.27
902.00,84.25
901.00,84.22
900.00,84.20
899.00,84.18
898.00,84.18
897.00,84.17
896.00,84.16
895.00,84.16
894.00,84.17
893.00,84.18
892.00,84.19
891.00,84.21
890.00,84.24
889.00,84.29
888.00,84.35
887.00,84.41
886.00,84.47
885.00,84.53
884.00,84.59
883.00,84.66
882.00,84.74
881.00,84.83
880.00,84.91
879.00,84.99
878.00,85.06
877.00,85.12
876.00,85.17
875.00,85.22
874.00,85.27
873.00,85.31
872.00,85.32
871.00,85.29
870.00,85.22
869.00,85.10
868.00,84.92
867.00,84.70
866.00,84.42
865.00,84.08
864.00,83.70
863.00,83.27
862.00,82.82
861.00,82.34
860.00,81.85
859.00,81.37
858.00,80.89
857.00,80.40
856.00,79.92
855.00,79.45
854.00,79.01
853.00,78.58
852.00,78.19
851.00,77.82
850.00,77.50
849.00,77.22
848.00,76.98
847.00,76.80
846.00,76.66
845.00,76.54
844.00,76.45
843.00,76.38
842.00,76.34
841.00,76.31
840.00,76.28
839.00,76.24
838.00,76.19
837.00,76.13
836.00,76.06
835.00,75.98
834.00,75.91
833.00,75.84
832.00,75.77
831.00,75.71
830.00,75.68
829.00,75.65
828.00,75.65
827.00,75.67
826.00,75.73
825.00,75.82
824.00,75.94
823.00,76.11
822.00,76.33
821.00,76.57
820.00,76.83
819.00,77.12
818.00,77.43
817.00,77.75
816.00,78.07
815.00,78.40
814.00,78.75
813.00,79.10
812.00,79.45
811.00,79.79
810.00,80.14
809.00,80.47
808.00,80.78
807.00,81.08
806.00,81.37
805.00,81.63
804.00,81.87
803.00,82.08
802.00,82.27
801.00,82.44
800.00,82.59
799.00,82.71
798.00,82.82
797.00,82.91
796.00,82.99
795.00,83.06
794.00,83.12
793.00,83.16
792.00,83.17
791.00,83.18
790.00,83.18
789.00,83.17
788.00,83.15
787.00,83.13
786.00,83.12
785.00,83.09
784.00,83.05
783.00,83.00
782.00,82.94
781.00,82.89
780.00,82.83
779.00,82.77
778.00,82.71
777.00,82.64
776.00,82.57
775.00,82.51
774.00,82.46
773.00,82.40
772.00,82.33
771.00,82.26
770.00,82.19
769.00,82.12
768.00,82.04
767.00,81.96
766.00,81.87
765.00,81.79
764.00,81.71
763.00,81.63
762.00,81.55
761.00,81.47
760.00,81.38
759.00,81.29
758.00,81.20
757.00,81.10
756.00,80.99
755.00,80.89
754.00,80.80
753.00,80.70
752.00,80.60
751.00,80.49
750.00,80.38
749.00,80.27
748.00,80.14
747.00,80.01
746.00,79.89
745.00,79.76
744.00,79.64
743.00,79.52
742.00,79.40
741.00,79.29
740.00,79.17
739.00,79.07
738.00,78.97
737.00,78.87
736.00,78.76
735.00,78.66
734.00,78.56
733.00,78.46
732.00,78.34
731.00,78.22
730.00,78.09
729.00,77.96
728.00,77.82
727.00,77.69
726.00,77.57
725.00,77.47
724.00,77.38
723.00,77.32
722.00,77.29
721.00,77.26
720.00,77.25
719.00,77.24
718.00,77.26
717.00,77.26
716.00,77.25
715.00,77.23
714.00,77.21
713.00,77.18
712.00,77.13
711.00,77.08
710.00,77.03
709.00,76.98
708.00,76.92
707.00,76.86
706.00,76.79
705.00,76.71
704.00,76.62
703.00,76.54
702.00,76.47
701.00,76.40
700.00,76.30
699.00,76.21
698.00,76.12
697.00,76.04
696.00,75.97
695.00,75.92
694.00,75.88
693.00,75.82
692.00,75.74
691.00,75.66
690.00,75.59
689.00,75.52
688.00,75.43
687.00,75.34
686.00,75.28
685.00,75.22
684.00,75.16
683.00,75.08
682.00,75.00
681.00,74.91
680.00,74.83
679.00,74.77
678.00,74.72
677.00,74.65
676.00,74.56
675.00,74.46
674.00,74.36
673.00,74.26
672.00,74.19
671.00,74.15
670.00,74.12
669.00,74.01
668.00,73.79
667.00,73.61
666.00,73.55
665.00,73.52
664.00,73.46
663.00,73.38
662.00,73.32
661.00,73.26
660.00,73.19
659.00,73.11
658.00,73.06
657.00,73.01
656.00,72.96
655.00,72.91
654.00,72.87
653.00,72.80
652.00,72.69
651.00,72.60
650.00,72.54
