Created as New Dataset,Nylon (6,6) GF
cm-1,%T
4000.00,98.25
3999.00,98.25
3998.00,98.25
3997.00,98.25
3996.00,98.25
3995.00,98.25
3994.00,98.26
3993.00,98.26
3992.00,98.27
3991.00,98.27
3990.00,98.27
3989.00,98.27
3988.00,98.27
3987.00,98.27
3986.00,98.27
3985.00,98.27
3984.00,98.28
3983.00,98.28
3982.00,98.28
3981.00,98.28
3980.00,98.29
3979.00,98.28
3978.00,98.28
3977.00,98.29
3976.00,98.29
3975.00,98.29
3974.00,98.29
3973.00,98.30
3972.00,98.30
3971.00,98.30
3970.00,98.31
3969.00,98.31
3968.00,98.31
3967.00,98.31
3966.00,98.31
3965.00,98.31
3964.00,98.31
3963.00,98.32
3962.00,98.32
3961.00,98.32
3960.00,98.32
3959.00,98.32
3958.00,98.32
3957.00,98.32
3956.00,98.32
3955.00,98.32
3954.00,98.32
3953.00,98.32
3952.00,98.32
3951.00,98.32
3950.00,98.32
3949.00,98.32
3948.00,98.32
3947.00,98.33
3946.00,98.33
3945.00,98.33
3944.00,98.33
3943.00,98.33
3942.00,98.33
3941.00,98.34
3940.00,98.34
3939.00,98.34
3938.00,98.34
3937.00,98.34
3936.00,98.34
3935.00,98.34
3934.00,98.34
3933.00,98.34
3932.00,98.34
3931.00,98.33
3930.00,98.33
3929.00,98.33
3928.00,98.33
3927.00,98.33
3926.00,98.33
3925.00,98.33
3924.00,98.34
3923.00,98.34
3922.00,98.33
3921.00,98.33
3920.00,98.34
3919.00,98.34
3918.00,98.34
3917.00,98.34
3916.00,98.34
3915.00,98.34
3914.00,98.34
3913.00,98.35
3912.00,98.35
3911.00,98.35
3910.00,98.35
3909.00,98.35
3908.00,98.35
3907.00,98.34
3906.00,98.34
3905.00,98.34
3904.00,98.34
3903.00,98.34
3902.00,98.34
3901.00,98.34
3900.00,98.34
3899.00,98.34
3898.00,98.34
3897.00,98.34
3896.00,98.34
3895.00,98.34
3894.00,98.34
3893.00,98.35
3892.00,98.35
3891.00,98.35
3890.00,98.35
3889.00,98.35
3888.00,98.34
3887.00,98.34
3886.00,98.34
3885.00,98.34
3884.00,98.34
3883.00,98.34
3882.00,98.34
3881.00,98.34
3880.00,98.35
3879.00,98.35
3878.00,98.35
3877.00,98.35
3876.00,98.35
3875.00,98.35
3874.00,98.35
3873.00,98.35
3872.00,98.35
3871.00,98.35
3870.00,98.35
3869.00,98.36
3868.00,98.36
3867.00,98.35
3866.00,98.35
3865.00,98.35
3864.00,98.35
3863.00,98.35
3862.00,98.35
3861.00,98.34
3860.00,98.34
3859.00,98.34
3858.00,98.34
3857.00,98.34
3856.00,98.34
3855.00,98.34
3854.00,98.34
3853.00,98.34
3852.00,98.34
3851.00,98.34
3850.00,98.34
3849.00,98.34
3848.00,98.34
3847.00,98.34
3846.00,98.34
3845.00,98.34
3844.00,98.33
3843.00,98.33
3842.00,98.33
3841.00,98.33
3840.00,98.33
3839.00,98.33
3838.00,98.32
3837.00,98.32
3836.00,98.33
3835.00,98.33
3834.00,98.33
3833.00,98.34
3832.00,98.34
3831.00,98.34
3830.00,98.34
3829.00,98.34
3828.00,98.34
3827.00,98.34
3826.00,98.34
3825.00,98.33
3824.00,98.33
3823.00,98.33
3822.00,98.33
3821.00,98.33
3820.00,98.33
3819.00,98.32
3818.00,98.32
3817.00,98.32
3816.00,98.32
3815.00,98.33
3814.00,98.33
3813.00,98.33
3812.00,98.33
3811.00,98.33
3810.00,98.33
3809.00,98.33
3808.00,98.33
3807.00,98.33
3806.00,98.32
3805.00,98.32
3804.00,98.32
3803.00,98.32
3802.00,98.32
3801.00,98.33
3800.00,98.32
3799.00,98.32
3798.00,98.32
3797.00,98.33
3796.00,98.33
3795.00,98.33
3794.00,98.33
3793.00,98.33
3792.00,98.33
3791.00,98.33
3790.00,98.33
3789.00,98.34
3788.00,98.34
3787.00,98.34
3786.00,98.34
3785.00,98.34
3784.00,98.34
3783.00,98.34
3782.00,98.34
3781.00,98.33
3780.00,98.33
3779.00,98.33
3778.00,98.34
3777.00,98.34
3776.00,98.34
3775.00,98.34
3774.00,98.34
3773.00,98.33
3772.00,98.33
3771.00,98.33
3770.00,98.33
3769.00,98.33
3768.00,98.33
3767.00,98.33
3766.00,98.33
3765.00,98.33
3764.00,98.33
3763.00,98.33
3762.00,98.33
3761.00,98.33
3760.00,98.32
3759.00,98.32
3758.00,98.32
3757.00,98.31
3756.00,98.31
3755.00,98.31
3754.00,98.31
3753.00,98.31
3752.00,98.30
3751.00,98.31
3750.00,98.31
3749.00,98.31
3748.00,98.31
3747.00,98.32
3746.00,98.32
3745.00,98.32
3744.00,98.32
3743.00,98.32
3742.00,98.31
3741.00,98.31
3740.00,98.31
3739.00,98.31
3738.00,98.31
3737.00,98.31
3736.00,98.31
3735.00,98.31
3734.00,98.31
3733.00,98.31
3732.00,98.31
3731.00,98.31
3730.00,98.31
3729.00,98.32
3728.00,98.32
3727.00,98.32
3726.00,98.32
3725.00,98.32
3724.00,98.32
3723.00,98.32
3722.00,98.32
3721.00,98.32
3720.00,98.32
3719.00,98.32
3718.00,98.32
3717.00,98.32
3716.00,98.32
3715.00,98.32
3714.00,98.33
3713.00,98.33
3712.00,98.33
3711.00,98.33
3710.00,98.32
3709.00,98.31
3708.00,98.31
3707.00,98.32
3706.00,98.32
3705.00,98.32
3704.00,98.32
3703.00,98.32
3702.00,98.32
3701.00,98.32
3700.00,98.31
3699.00,98.31
3698.00,98.31
3697.00,98.30
3696.00,98.30
3695.00,98.30
3694.00,98.29
3693.00,98.29
3692.00,98.29
3691.00,98.29
3690.00,98.28
3689.00,98.28
3688.00,98.27
3687.00,98.26
3686.00,98.26
3685.00,98.25
3684.00,98.25
3683.00,98.24
3682.00,98.24
3681.00,98.23
3680.00,98.22
3679.00,98.21
3678.00,98.20
3677.00,98.19
3676.00,98.18
3675.00,98.18
3674.00,98.18
3673.00,98.17
3672.00,98.17
3671.00,98.17
3670.00,98.17
3669.00,98.17
3668.00,98.17
3667.00,98.17
3666.00,98.17
3665.00,98.17
3664.00,98.17
3663.00,98.17
3662.00,98.16
3661.00,98.16
3660.00,98.15
3659.00,98.14
3658.00,98.14
3657.00,98.13
3656.00,98.13
3655.00,98.12
3654.00,98.12
3653.00,98.11
3652.00,98.11
3651.00,98.10
3650.00,98.09
3649.00,98.08
3648.00,98.07
3647.00,98.08
3646.00,98.08
3645.00,98.08
3644.00,98.07
3643.00,98.07
3642.00,98.06
3641.00,98.06
3640.00,98.05
3639.00,98.04
3638.00,98.04
3637.00,98.03
3636.00,98.02
3635.00,98.02
3634.00,98.01
3633.00,98.00
3632.00,97.99
3631.00,97.98
3630.00,97.98
3629.00,97.96
3628.00,97.95
3627.00,97.95
3626.00,97.94
3625.00,97.93
3624.00,97.93
3623.00,97.92
3622.00,97.91
3621.00,97.90
3620.00,97.89
3619.00,97.87
3618.00,97.86
3617.00,97.85
3616.00,97.84
3615.00,97.83
3614.00,97.82
3613.00,97.81
3612.00,97.80
3611.00,97.79
3610.00,97.78
3609.00,97.78
3608.00,97.77
3607.00,97.76
3606.00,97.74
3605.00,97.73
3604.00,97.72
3603.00,97.71
3602.00,97.71
3601.00,97.69
3600.00,97.68
3599.00,97.67
3598.00,97.66
3597.00,97.65
3596.00,97.64
3595.00,97.63
3594.00,97.61
3593.00,97.60
3592.00,97.58
3591.00,97.57
3590.00,97.55
3589.00,97.53
3588.00,97.52
3587.00,97.51
3586.00,97.50
3585.00,97.49
3584.00,97.47
3583.00,97.46
3582.00,97.45
3581.00,97.43
3580.00,97.42
3579.00,97.40
3578.00,97.39
3577.00,97.38
3576.00,97.36
3575.00,97.35
3574.00,97.33
3573.00,97.32
3572.00,97.30
3571.00,97.29
3570.00,97.27
3569.00,97.26
3568.00,97.23
3567.00,97.21
3566.00,97.19
3565.00,97.18
3564.00,97.16
3563.00,97.14
3562.00,97.13
3561.00,97.11
3560.00,97.10
3559.00,97.08
3558.00,97.06
3557.00,97.04
3556.00,97.02
3555.00,97.01
3554.00,96.99
3553.00,96.97
3552.00,96.95
3551.00,96.93
3550.00,96.92
3549.00,96.90
3548.00,96.89
3547.00,96.87
3546.00,96.85
3545.00,96.83
3544.00,96.81
3543.00,96.79
3542.00,96.77
3541.00,96.75
3540.00,96.73
3539.00,96.72
3538.00,96.70
3537.00,96.68
3536.00,96.65
3535.00,96.63
3534.00,96.61
3533.00,96.59
3532.00,96.57
3531.00,96.56
3530.00,96.54
3529.00,96.51
3528.00,96.49
3527.00,96.47
3526.00,96.45
3525.00,96.43
3524.00,96.42
3523.00,96.40
3522.00,96.38
3521.00,96.35
3520.00,96.33
3519.00,96.31
3518.00,96.29
3517.00,96.28
3516.00,96.26
3515.00,96.25
3514.00,96.23
3513.00,96.21
3512.00,96.19
3511.00,96.17
3510.00,96.15
3509.00,96.14
3508.00,96.12
3507.00,96.11
3506.00,96.09
3505.00,96.08
3504.00,96.06
3503.00,96.05
3502.00,96.03
3501.00,96.02
3500.00,96.01
3499.00,95.99
3498.00,95.98
3497.00,95.96
3496.00,95.94
3495.00,95.93
3494.00,95.92
3493.00,95.91
3492.00,95.90
3491.00,95.88
3490.00,95.87
3489.00,95.86
3488.00,95.84
3487.00,95.83
3486.00,95.82
3485.00,95.81
3484.00,95.80
3483.00,95.80
3482.00,95.79
3481.00,95.79
3480.00,95.78
3479.00,95.77
3478.00,95.76
3477.00,95.75
3476.00,95.74
3475.00,95.73
3474.00,95.72
3473.00,95.72
3472.00,95.71
3471.00,95.70
3470.00,95.70
3469.00,95.69
3468.00,95.68
3467.00,95.67
3466.00,95.67
3465.00,95.66
3464.00,95.64
3463.00,95.63
3462.00,95.62
3461.00,95.61
3460.00,95.61
3459.00,95.60
3458.00,95.59
3457.00,95.58
3456.00,95.57
3455.00,95.56
3454.00,95.55
3453.00,95.54
3452.00,95.53
3451.00,95.52
3450.00,95.50
3449.00,95.49
3448.00,95.49
3447.00,95.48
3446.00,95.47
3445.00,95.46
3444.00,95.44
3443.00,95.43
3442.00,95.43
3441.00,95.42
3440.00,95.41
3439.00,95.40
3438.00,95.39
3437.00,95.37
3436.00,95.36
3435.00,95.35
3434.00,95.34
3433.00,95.33
3432.00,95.32
3431.00,95.30
3430.00,95.29
3429.00,95.27
3428.00,95.26
3427.00,95.24
3426.00,95.22
3425.00,95.20
3424.00,95.19
3423.00,95.17
3422.00,95.16
3421.00,95.15
3420.00,95.13
3419.00,95.11
3418.00,95.09
3417.00,95.08
3416.00,95.05
3415.00,95.03
3414.00,95.01
3413.00,94.99
3412.00,94.97
3411.00,94.95
3410.00,94.92
3409.00,94.90
3408.00,94.87
3407.00,94.85
3406.00,94.83
3405.00,94.80
3404.00,94.78
3403.00,94.75
3402.00,94.72
3401.00,94.69
3400.00,94.66
3399.00,94.62
3398.00,94.59
3397.00,94.56
3396.00,94.53
3395.00,94.50
3394.00,94.46
3393.00,94.42
3392.00,94.39
3391.00,94.35
3390.00,94.31
3389.00,94.27
3388.00,94.22
3387.00,94.18
3386.00,94.14
3385.00,94.09
3384.00,94.05
3383.00,94.01
3382.00,93.96
3381.00,93.91
3380.00,93.86
3379.00,93.80
3378.00,93.75
3377.00,93.70
3376.00,93.64
3375.00,93.59
3374.00,93.53
3373.00,93.47
3372.00,93.41
3371.00,93.35
3370.00,93.28
3369.00,93.21
3368.00,93.14
3367.00,93.06
3366.00,92.98
3365.00,92.90
3364.00,92.82
3363.00,92.73
3362.00,92.64
3361.00,92.54
3360.00,92.44
3359.00,92.34
3358.00,92.24
3357.00,92.12
3356.00,92.00
3355.00,91.88
3354.00,91.76
3353.00,91.63
3352.00,91.49
3351.00,91.34
3350.00,91.19
3349.00,91.03
3348.00,90.86
3347.00,90.68
3346.00,90.49
3345.00,90.30
3344.00,90.09
3343.00,89.88
3342.00,89.66
3341.00,89.42
3340.00,89.18
3339.00,88.92
3338.00,88.65
3337.00,88.37
3336.00,88.07
3335.00,87.76
3334.00,87.43
3333.00,87.09
3332.00,86.73
3331.00,86.36
3330.00,85.97
3329.00,85.56
3328.00,85.12
3327.00,84.66
3326.00,84.18
3325.00,83.68
3324.00,83.15
3323.00,82.59
3322.00,82.00
3321.00,81.39
3320.00,80.75
3319.00,80.08
3318.00,79.39
3317.00,78.67
3316.00,77.92
3315.00,77.14
3314.00,76.35
3313.00,75.53
3312.00,74.71
3311.00,73.88
3310.00,73.05
3309.00,72.23
3308.00,71.44
3307.00,70.67
3306.00,69.95
3305.00,69.27
3304.00,68.65
3303.00,68.10
3302.00,67.63
3301.00,67.24
3300.00,66.94
3299.00,66.73
3298.00,66.62
3297.00,66.59
3296.00,66.65
3295.00,66.80
3294.00,67.03
3293.00,67.33
3292.00,67.69
3291.00,68.10
3290.00,68.56
3289.00,69.05
3288.00,69.56
3287.00,70.10
3286.00,70.64
3285.00,71.19
3284.00,71.74
3283.00,72.28
3282.00,72.80
3281.00,73.31
3280.00,73.81
3279.00,74.28
3278.00,74.74
3277.00,75.18
3276.00,75.61
3275.00,76.02
3274.00,76.42
3273.00,76.79
3272.00,77.16
3271.00,77.51
3270.00,77.84
3269.00,78.18
3268.00,78.51
3267.00,78.84
3266.00,79.17
3265.00,79.51
3264.00,79.85
3263.00,80.19
3262.00,80.53
3261.00,80.87
3260.00,81.21
3259.00,81.56
3258.00,81.90
3257.00,82.23
3256.00,82.55
3255.00,82.86
3254.00,83.15
3253.00,83.44
3252.00,83.73
3251.00,84.01
3250.00,84.30
3249.00,84.57
3248.00,84.84
3247.00,85.10
3246.00,85.35
3245.00,85.59
3244.00,85.82
3243.00,86.05
3242.00,86.28
3241.00,86.50
3240.00,86.71
3239.00,86.93
3238.00,87.14
3237.00,87.35
3236.00,87.55
3235.00,87.75
3234.00,87.93
3233.00,88.09
3232.00,88.25
3231.00,88.40
3230.00,88.55
3229.00,88.69
3228.00,88.82
3227.00,88.95
3226.00,89.07
3225.00,89.19
3224.00,89.30
3223.00,89.41
3222.00,89.51
3221.00,89.60
3220.00,89.69
3219.00,89.77
3218.00,89.84
3217.00,89.92
3216.00,89.98
3215.00,90.04
3214.00,90.10
3213.00,90.15
3212.00,90.20
3211.00,90.25
3210.00,90.30
3209.00,90.34
3208.00,90.38
3207.00,90.43
3206.00,90.47
3205.00,90.51
3204.00,90.55
3203.00,90.59
3202.00,90.63
3201.00,90.67
3200.00,90.72
3199.00,90.77
3198.00,90.82
3197.00,90.87
3196.00,90.93
3195.00,90.99
3194.00,91.05
3193.00,91.11
3192.00,91.18
3191.00,91.25
3190.00,91.31
3189.00,91.38
3188.00,91.44
3187.00,91.52
3186.00,91.59
3185.00,91.66
3184.00,91.74
3183.00,91.81
3182.00,91.89
3181.00,91.96
3180.00,92.04
3179.00,92.12
3178.00,92.20
3177.00,92.28
3176.00,92.37
3175.00,92.45
3174.00,92.54
3173.00,92.63
3172.00,92.72
3171.00,92.80
3170.00,92.89
3169.00,92.97
3168.00,93.06
3167.00,93.14
3166.00,93.22
3165.00,93.30
3164.00,93.38
3163.00,93.44
3162.00,93.51
3161.00,93.57
3160.00,93.63
3159.00,93.68
3158.00,93.74
3157.00,93.79
3156.00,93.84
3155.00,93.89
3154.00,93.93
3153.00,93.97
3152.00,94.01
3151.00,94.04
3150.00,94.07
3149.00,94.10
3148.00,94.12
3147.00,94.14
3146.00,94.16
3145.00,94.18
3144.00,94.20
3143.00,94.23
3142.00,94.25
3141.00,94.27
3140.00,94.28
3139.00,94.29
3138.00,94.29
3137.00,94.29
3136.00,94.29
3135.00,94.29
3134.00,94.29
3133.00,94.28
3132.00,94.28
3131.00,94.27
3130.00,94.26
3129.00,94.25
3128.00,94.23
3127.00,94.21
3126.00,94.19
3125.00,94.17
3124.00,94.15
3123.00,94.13
3122.00,94.11
3121.00,94.08
3120.00,94.05
3119.00,94.01
3118.00,93.96
3117.00,93.91
3116.00,93.85
3115.00,93.79
3114.00,93.72
3113.00,93.66
3112.00,93.59
3111.00,93.53
3110.00,93.46
3109.00,93.39
3108.00,93.31
3107.00,93.22
3106.00,93.14
3105.00,93.06
3104.00,92.98
3103.00,92.90
3102.00,92.82
3101.00,92.74
3100.00,92.65
3099.00,92.56
3098.00,92.47
3097.00,92.39
3096.00,92.31
3095.00,92.23
3094.00,92.17
3093.00,92.10
3092.00,92.04
3091.00,91.99
3090.00,91.93
3089.00,91.88
3088.00,91.83
3087.00,91.79
3086.00,91.76
3085.00,91.73
3084.00,91.71
3083.00,91.69
3082.00,91.68
3081.00,91.67
3080.00,91.66
3079.00,91.66
3078.00,91.65
3077.00,91.64
3076.00,91.63
3075.00,91.63
3074.00,91.63
3073.00,91.64
3072.00,91.65
3071.00,91.67
3070.00,91.69
3069.00,91.71
3068.00,91.72
3067.00,91.74
3066.00,91.75
3065.00,91.76
3064.00,91.78
3063.00,91.81
3062.00,91.84
3061.00,91.90
3060.00,91.96
3059.00,92.04
3058.00,92.13
3057.00,92.23
3056.00,92.34
3055.00,92.45
3054.00,92.58
3053.00,92.71
3052.00,92.85
3051.00,93.00
3050.00,93.14
3049.00,93.29
3048.00,93.44
3047.00,93.60
3046.00,93.75
3045.00,93.89
3044.00,94.03
3043.00,94.16
3042.00,94.28
3041.00,94.38
3040.00,94.49
3039.00,94.58
3038.00,94.68
3037.00,94.77
3036.00,94.86
3035.00,94.93
3034.00,95.00
3033.00,95.07
3032.00,95.12
3031.00,95.18
3030.00,95.23
3029.00,95.28
3028.00,95.32
3027.00,95.36
3026.00,95.40
3025.00,95.44
3024.00,95.47
3023.00,95.50
3022.00,95.53
3021.00,95.56
3020.00,95.59
3019.00,95.62
3018.00,95.64
3017.00,95.66
3016.00,95.68
3015.00,95.70
3014.00,95.72
3013.00,95.74
3012.00,95.75
3011.00,95.75
3010.00,95.76
3009.00,95.76
3008.00,95.76
3007.00,95.77
3006.00,95.77
3005.00,95.77
3004.00,95.77
3003.00,95.76
3002.00,95.76
3001.00,95.75
3000.00,95.74
2999.00,95.73
2998.00,95.71
2997.00,95.68
2996.00,95.66
2995.00,95.63
2994.00,95.59
2993.00,95.55
2992.00,95.49
2991.00,95.44
2990.00,95.37
2989.00,95.30
2988.00,95.21
2987.00,95.13
2986.00,95.03
2985.00,94.92
2984.00,94.80
2983.00,94.67
2982.00,94.53
2981.00,94.38
2980.00,94.21
2979.00,94.03
2978.00,93.84
2977.00,93.63
2976.00,93.41
2975.00,93.17
2974.00,92.91
2973.00,92.63
2972.00,92.33
2971.00,92.02
2970.00,91.70
2969.00,91.36
2968.00,91.02
2967.00,90.66
2966.00,90.30
2965.00,89.94
2964.00,89.58
2963.00,89.23
2962.00,88.86
2961.00,88.49
2960.00,88.09
2959.00,87.67
2958.00,87.21
2957.00,86.70
2956.00,86.14
2955.00,85.52
2954.00,84.83
2953.00,84.07
2952.00,83.24
2951.00,82.34
2950.00,81.39
2949.00,80.40
2948.00,79.41
2947.00,78.46
2946.00,77.60
2945.00,76.84
2944.00,76.18
2943.00,75.59
2942.00,75.02
2941.00,74.45
2940.00,73.86
2939.00,73.26
2938.00,72.68
2937.00,72.15
2936.00,71.70
2935.00,71.35
2934.00,71.12
2933.00,71.02
2932.00,71.05
2931.00,71.21
2930.00,71.46
2929.00,71.80
2928.00,72.18
2927.00,72.58
2926.00,72.99
2925.00,73.41
2924.00,73.82
2923.00,74.24
2922.00,74.66
2921.00,75.09
2920.00,75.53
2919.00,75.99
2918.00,76.47
2917.00,76.98
2916.00,77.52
2915.00,78.09
2914.00,78.66
2913.00,79.22
2912.00,79.75
2911.00,80.25
2910.00,80.71
2909.00,81.14
2908.00,81.56
2907.00,81.98
2906.00,82.40
2905.00,82.83
2904.00,83.26
2903.00,83.70
2902.00,84.13
2901.00,84.56
2900.00,84.98
2899.00,85.38
2898.00,85.77
2897.00,86.13
2896.00,86.47
2895.00,86.77
2894.00,87.05
2893.00,87.28
2892.00,87.47
2891.00,87.62
2890.00,87.71
2889.00,87.75
2888.00,87.72
2887.00,87.62
2886.00,87.45
2885.00,87.20
2884.00,86.88
2883.00,86.49
2882.00,86.05
2881.00,85.56
2880.00,85.06
2879.00,84.56
2878.00,84.08
2877.00,83.65
2876.00,83.28
2875.00,82.97
2874.00,82.73
2873.00,82.53
2872.00,82.37
2871.00,82.23
2870.00,82.09
2869.00,81.92
2868.00,81.72
2867.00,81.46
2866.00,81.14
2865.00,80.77
2864.00,80.37
2863.00,79.96
2862.00,79.58
2861.00,79.27
2860.00,79.07
2859.00,78.98
2858.00,79.02
2857.00,79.20
2856.00,79.51
2855.00,79.95
2854.00,80.50
2853.00,81.13
2852.00,81.84
2851.00,82.62
2850.00,83.48
2849.00,84.41
2848.00,85.39
2847.00,86.37
2846.00,87.32
2845.00,88.18
2844.00,88.96
2843.00,89.64
2842.00,90.22
2841.00,90.72
2840.00,91.15
2839.00,91.52
2838.00,91.83
2837.00,92.09
2836.00,92.31
2835.00,92.50
2834.00,92.66
2833.00,92.80
2832.00,92.92
2831.00,93.03
2830.00,93.12
2829.00,93.21
2828.00,93.29
2827.00,93.36
2826.00,93.44
2825.00,93.51
2824.00,93.59
2823.00,93.67
2822.00,93.76
2821.00,93.84
2820.00,93.92
2819.00,94.00
2818.00,94.08
2817.00,94.15
2816.00,94.23
2815.00,94.30
2814.00,94.37
2813.00,94.44
2812.00,94.50
2811.00,94.56
2810.00,94.61
2809.00,94.67
2808.00,94.72
2807.00,94.77
2806.00,94.82
2805.00,94.87
2804.00,94.91
2803.00,94.95
2802.00,95.00
2801.00,95.04
2800.00,95.08
2799.00,95.12
2798.00,95.17
2797.00,95.21
2796.00,95.25
2795.00,95.29
2794.00,95.33
2793.00,95.37
2792.00,95.41
2791.00,95.44
2790.00,95.47
2789.00,95.50
2788.00,95.53
2787.00,95.56
2786.00,95.58
2785.00,95.61
2784.00,95.63
2783.00,95.65
2782.00,95.67
2781.00,95.68
2780.00,95.70
2779.00,95.72
2778.00,95.74
2777.00,95.76
2776.00,95.77
2775.00,95.78
2774.00,95.79
2773.00,95.80
2772.00,95.82
2771.00,95.83
2770.00,95.85
2769.00,95.86
2768.00,95.88
2767.00,95.89
2766.00,95.90
2765.00,95.92
2764.00,95.93
2763.00,95.94
2762.00,95.95
2761.00,95.96
2760.00,95.97
2759.00,95.98
2758.00,95.99
2757.00,96.00
2756.00,96.01
2755.00,96.02
2754.00,96.03
2753.00,96.04
2752.00,96.05
2751.00,96.06
2750.00,96.06
2749.00,96.07
2748.00,96.07
2747.00,96.08
2746.00,96.09
2745.00,96.10
2744.00,96.11
2743.00,96.13
2742.00,96.14
2741.00,96.16
2740.00,96.18
2739.00,96.20
2738.00,96.22
2737.00,96.25
2736.00,96.27
2735.00,96.29
2734.00,96.32
2733.00,96.34
2732.00,96.37
2731.00,96.39
2730.00,96.42
2729.00,96.44
2728.00,96.47
2727.00,96.49
2726.00,96.51
2725.00,96.53
2724.00,96.55
2723.00,96.57
2722.00,96.59
2721.00,96.61
2720.00,96.62
2719.00,96.64
2718.00,96.65
2717.00,96.67
2716.00,96.68
2715.00,96.69
2714.00,96.70
2713.00,96.71
2712.00,96.72
2711.00,96.72
2710.00,96.73
2709.00,96.74
2708.00,96.75
2707.00,96.76
2706.00,96.77
2705.00,96.77
2704.00,96.77
2703.00,96.77
2702.00,96.78
2701.00,96.78
2700.00,96.79
2699.00,96.79
2698.00,96.80
2697.00,96.81
2696.00,96.81
2695.00,96.82
2694.00,96.82
2693.00,96.82
2692.00,96.83
2691.00,96.84
2690.00,96.84
2689.00,96.85
2688.00,96.85
2687.00,96.86
2686.00,96.87
2685.00,96.87
2684.00,96.88
2683.00,96.88
2682.00,96.89
2681.00,96.89
2680.00,96.90
2679.00,96.91
2678.00,96.92
2677.00,96.93
2676.00,96.94
2675.00,96.95
2674.00,96.95
2673.00,96.96
2672.00,96.96
2671.00,96.97
2670.00,96.98
2669.00,96.98
2668.00,96.98
2667.00,96.99
2666.00,96.99
2665.00,96.99
2664.00,96.98
2663.00,96.98
2662.00,96.98
2661.00,96.97
2660.00,96.97
2659.00,96.97
2658.00,96.97
2657.00,96.97
2656.00,96.97
2655.00,96.97
2654.00,96.97
2653.00,96.98
2652.00,96.98
2651.00,96.98
2650.00,96.99
2649.00,96.99
2648.00,96.99
2647.00,97.00
2646.00,97.00
2645.00,97.01
2644.00,97.01
2643.00,97.02
2642.00,97.03
2641.00,97.03
2640.00,97.03
2639.00,97.03
2638.00,97.03
2637.00,97.03
2636.00,97.04
2635.00,97.04
2634.00,97.05
2633.00,97.05
2632.00,97.05
2631.00,97.05
2630.00,97.06
2629.00,97.06
2628.00,97.06
2627.00,97.06
2626.00,97.06
2625.00,97.06
2624.00,97.06
2623.00,97.06
2622.00,97.06
2621.00,97.06
2620.00,97.06
2619.00,97.06
2618.00,97.06
2617.00,97.05
2616.00,97.05
2615.00,97.04
2614.00,97.04
2613.00,97.03
2612.00,97.03
2611.00,97.03
2610.00,97.03
2609.00,97.03
2608.00,97.02
2607.00,97.02
2606.00,97.02
2605.00,97.01
2604.00,97.01
2603.00,97.02
2602.00,97.02
2601.00,97.02
2600.00,97.01
2599.00,97.01
2598.00,97.01
2597.00,97.01
2596.00,97.01
2595.00,97.01
2594.00,97.01
2593.00,97.01
2592.00,97.01
2591.00,97.02
2590.00,97.02
2589.00,97.02
2588.00,97.03
2587.00,97.04
2586.00,97.04
2585.00,97.05
2584.00,97.05
2583.00,97.05
2582.00,97.06
2581.00,97.07
2580.00,97.08
2579.00,97.09
2578.00,97.10
2577.00,97.11
2576.00,97.11
2575.00,97.12
2574.00,97.12
2573.00,97.13
2572.00,97.15
2571.00,97.16
2570.00,97.17
2569.00,97.18
2568.00,97.19
2567.00,97.20
2566.00,97.20
2565.00,97.20
2564.00,97.21
2563.00,97.21
2562.00,97.22
2561.00,97.22
2560.00,97.23
2559.00,97.24
2558.00,97.25
2557.00,97.25
2556.00,97.25
2555.00,97.26
2554.00,97.26
2553.00,97.26
2552.00,97.26
2551.00,97.27
2550.00,97.28
2549.00,97.28
2548.00,97.28
2547.00,97.28
2546.00,97.29
2545.00,97.29
2544.00,97.30
2543.00,97.30
2542.00,97.30
2541.00,97.30
2540.00,97.31
2539.00,97.31
2538.00,97.32
2537.00,97.32
2536.00,97.33
2535.00,97.33
2534.00,97.33
2533.00,97.33
2532.00,97.34
2531.00,97.35
2530.00,97.35
2529.00,97.35
2528.00,97.35
2527.00,97.35
2526.00,97.35
2525.00,97.36
2524.00,97.36
2523.00,97.37
2522.00,97.38
2521.00,97.38
2520.00,97.38
2519.00,97.38
2518.00,97.38
2517.00,97.38
2516.00,97.38
2515.00,97.39
2514.00,97.40
2513.00,97.40
2512.00,97.41
2511.00,97.42
2510.00,97.42
2509.00,97.42
2508.00,97.41
2507.00,97.41
2506.00,97.41
2505.00,97.41
2504.00,97.41
2503.00,97.42
2502.00,97.42
2501.00,97.42
2500.00,97.42
2499.00,97.42
2498.00,97.42
2497.00,97.42
2496.00,97.42
2495.00,97.43
2494.00,97.43
2493.00,97.43
2492.00,97.43
2491.00,97.44
2490.00,97.44
2489.00,97.44
2488.00,97.44
2487.00,97.44
2486.00,97.44
2485.00,97.43
2484.00,97.43
2483.00,97.44
2482.00,97.44
2481.00,97.44
2480.00,97.44
2479.00,97.44
2478.00,97.45
2477.00,97.45
2476.00,97.45
2475.00,97.46
2474.00,97.47
2473.00,97.47
2472.00,97.47
2471.00,97.48
2470.00,97.48
2469.00,97.48
2468.00,97.48
2467.00,97.49
2466.00,97.49
2465.00,97.49
2464.00,97.50
2463.00,97.50
2462.00,97.50
2461.00,97.50
2460.00,97.51
2459.00,97.51
2458.00,97.51
2457.00,97.51
2456.00,97.51
2455.00,97.52
2454.00,97.52
2453.00,97.53
2452.00,97.53
2451.00,97.53
2450.00,97.53
2449.00,97.53
2448.00,97.54
2447.00,97.54
2446.00,97.55
2445.00,97.55
2444.00,97.55
2443.00,97.55
2442.00,97.55
2441.00,97.56
2440.00,97.56
2439.00,97.57
2438.00,97.58
2437.00,97.58
2436.00,97.58
2435.00,97.58
2434.00,97.58
2433.00,97.59
2432.00,97.59
2431.00,97.59
2430.00,97.60
2429.00,97.60
2428.00,97.60
2427.00,97.61
2426.00,97.61
2425.00,97.61
2424.00,97.61
2423.00,97.61
2422.00,97.62
2421.00,97.62
2420.00,97.63
2419.00,97.63
2418.00,97.64
2417.00,97.64
2416.00,97.64
2415.00,97.64
2414.00,97.64
2413.00,97.64
2412.00,97.64
2411.00,97.64
2410.00,97.63
2409.00,97.63
2408.00,97.64
2407.00,97.65
2406.00,97.66
2405.00,97.67
2404.00,97.68
2403.00,97.69
2402.00,97.69
2401.00,97.69
2400.00,97.69
2399.00,97.70
2398.00,97.70
2397.00,97.70
2396.00,97.70
2395.00,97.70
2394.00,97.70
2393.00,97.70
2392.00,97.69
2391.00,97.69
2390.00,97.70
2389.00,97.70
2388.00,97.70
2387.00,97.71
2386.00,97.71
2385.00,97.71
2384.00,97.71
2383.00,97.72
2382.00,97.73
2381.00,97.74
2380.00,97.74
2379.00,97.76
2378.00,97.76
2377.00,97.77
2376.00,97.77
2375.00,97.77
2374.00,97.77
2373.00,97.77
2372.00,97.77
2371.00,97.77
2370.00,97.76
2369.00,97.75
2368.00,97.75
2367.00,97.76
2366.00,97.77
2365.00,97.76
2364.00,97.76
2363.00,97.76
2362.00,97.76
2361.00,97.75
2360.00,97.74
2359.00,97.75
2358.00,97.75
2357.00,97.74
2356.00,97.74
2355.00,97.75
2354.00,97.75
2353.00,97.74
2352.00,97.74
2351.00,97.75
2350.00,97.76
2349.00,97.77
2348.00,97.78
2347.00,97.79
2346.00,97.78
2345.00,97.76
2344.00,97.75
2343.00,97.74
2342.00,97.72
2341.00,97.70
2340.00,97.69
2339.00,97.68
2338.00,97.67
2337.00,97.65
2336.00,97.65
2335.00,97.65
2334.00,97.66
2333.00,97.66
2332.00,97.66
2331.00,97.66
2330.00,97.65
2329.00,97.64
2328.00,97.62
2327.00,97.59
2326.00,97.55
2325.00,97.50
2324.00,97.46
2323.00,97.45
2322.00,97.45
2321.00,97.47
2320.00,97.49
2319.00,97.51
2318.00,97.53
2317.00,97.55
2316.00,97.56
2315.00,97.57
2314.00,97.58
2313.00,97.57
2312.00,97.57
2311.00,97.57
2310.00,97.57
2309.00,97.57
2308.00,97.58
2307.00,97.58
2306.00,97.58
2305.00,97.58
2304.00,97.58
2303.00,97.58
2302.00,97.58
2301.00,97.58
2300.00,97.58
2299.00,97.58
2298.00,97.58
2297.00,97.57
2296.00,97.56
2295.00,97.55
2294.00,97.55
2293.00,97.54
2292.00,97.53
2291.00,97.52
2290.00,97.51
2289.00,97.49
2288.00,97.48
2287.00,97.48
2286.00,97.47
2285.00,97.47
2284.00,97.47
2283.00,97.48
2282.00,97.49
2281.00,97.49
2280.00,97.50
2279.00,97.50
2278.00,97.51
2277.00,97.52
2276.00,97.52
2275.00,97.53
2274.00,97.53
2273.00,97.53
2272.00,97.53
2271.00,97.53
2270.00,97.53
2269.00,97.52
2268.00,97.52
2267.00,97.53
2266.00,97.54
2265.00,97.54
2264.00,97.54
2263.00,97.54
2262.00,97.54
2261.00,97.53
2260.00,97.53
2259.00,97.53
2258.00,97.52
2257.00,97.52
2256.00,97.52
2255.00,97.53
2254.00,97.54
2253.00,97.55
2252.00,97.55
2251.00,97.55
2250.00,97.55
2249.00,97.54
2248.00,97.53
2247.00,97.54
2246.00,97.54
2245.00,97.53
2244.00,97.52
2243.00,97.52
2242.00,97.52
2241.00,97.51
2240.00,97.51
2239.00,97.52
2238.00,97.53
2237.00,97.52
2236.00,97.52
2235.00,97.52
2234.00,97.52
2233.00,97.51
2232.00,97.50
2231.00,97.50
2230.00,97.50
2229.00,97.49
2228.00,97.49
2227.00,97.50
2226.00,97.49
2225.00,97.48
2224.00,97.47
2223.00,97.48
2222.00,97.48
2221.00,97.48
2220.00,97.48
2219.00,97.47
2218.00,97.47
2217.00,97.46
2216.00,97.46
2215.00,97.46
2214.00,97.47
2213.00,97.47
2212.00,97.48
2211.00,97.49
2210.00,97.49
2209.00,97.49
2208.00,97.49
2207.00,97.49
2206.00,97.49
2205.00,97.48
2204.00,97.47
2203.00,97.46
2202.00,97.46
2201.00,97.45
2200.00,97.45
2199.00,97.45
2198.00,97.45
2197.00,97.43
2196.00,97.42
2195.00,97.42
2194.00,97.42
2193.00,97.41
2192.00,97.40
2191.00,97.39
2190.00,97.37
2189.00,97.36
2188.00,97.34
2187.00,97.34
2186.00,97.33
2185.00,97.33
2184.00,97.35
2183.00,97.38
2182.00,97.42
2181.00,97.44
2180.00,97.45
2179.00,97.45
2178.00,97.45
2177.00,97.43
2176.00,97.42
2175.00,97.42
2174.00,97.42
2173.00,97.41
2172.00,97.39
2171.00,97.37
2170.00,97.34
2169.00,97.29
2168.00,97.25
2167.00,97.23
2166.00,97.22
2165.00,97.20
2164.00,97.17
2163.00,97.15
2162.00,97.14
2161.00,97.17
2160.00,97.27
2159.00,97.45
2158.00,97.63
2157.00,97.74
2156.00,97.78
2155.00,97.78
2154.00,97.76
2153.00,97.73
2152.00,97.69
2151.00,97.66
2150.00,97.65
2149.00,97.64
2148.00,97.64
2147.00,97.65
2146.00,97.67
2145.00,97.67
2144.00,97.68
2143.00,97.69
2142.00,97.70
2141.00,97.70
2140.00,97.69
2139.00,97.68
2138.00,97.69
2137.00,97.70
2136.00,97.73
2135.00,97.78
2134.00,97.81
2133.00,97.83
2132.00,97.83
2131.00,97.82
2130.00,97.80
2129.00,97.78
2128.00,97.76
2127.00,97.76
2126.00,97.75
2125.00,97.73
2124.00,97.72
2123.00,97.71
2122.00,97.71
2121.00,97.69
2120.00,97.68
2119.00,97.67
2118.00,97.66
2117.00,97.64
2116.00,97.62
2115.00,97.61
2114.00,97.60
2113.00,97.59
2112.00,97.59
2111.00,97.60
2110.00,97.61
2109.00,97.61
2108.00,97.60
2107.00,97.59
2106.00,97.58
2105.00,97.58
2104.00,97.58
2103.00,97.59
2102.00,97.58
2101.00,97.57
2100.00,97.57
2099.00,97.57
2098.00,97.59
2097.00,97.60
2096.00,97.62
2095.00,97.65
2094.00,97.67
2093.00,97.68
2092.00,97.68
2091.00,97.67
2090.00,97.66
2089.00,97.64
2088.00,97.63
2087.00,97.62
2086.00,97.62
2085.00,97.61
2084.00,97.61
2083.00,97.61
2082.00,97.61
2081.00,97.60
2080.00,97.59
2079.00,97.59
2078.00,97.58
2077.00,97.57
2076.00,97.56
2075.00,97.57
2074.00,97.57
2073.00,97.58
2072.00,97.59
2071.00,97.61
2070.00,97.63
2069.00,97.64
2068.00,97.65
2067.00,97.65
2066.00,97.65
2065.00,97.63
2064.00,97.61
2063.00,97.61
2062.00,97.61
2061.00,97.60
2060.00,97.60
2059.00,97.60
2058.00,97.60
2057.00,97.59
2056.00,97.59
2055.00,97.60
2054.00,97.59
2053.00,97.55
2052.00,97.49
2051.00,97.44
2050.00,97.42
2049.00,97.43
2048.00,97.47
2047.00,97.52
2046.00,97.54
2045.00,97.53
2044.00,97.52
2043.00,97.51
2042.00,97.51
2041.00,97.51
2040.00,97.51
2039.00,97.52
2038.00,97.53
2037.00,97.52
2036.00,97.51
2035.00,97.52
2034.00,97.54
2033.00,97.55
2032.00,97.57
2031.00,97.61
2030.00,97.62
2029.00,97.61
2028.00,97.60
2027.00,97.60
2026.00,97.61
2025.00,97.61
2024.00,97.61
2023.00,97.61
2022.00,97.62
2021.00,97.62
2020.00,97.62
2019.00,97.64
2018.00,97.66
2017.00,97.66
2016.00,97.66
2015.00,97.67
2014.00,97.68
2013.00,97.67
2012.00,97.66
2011.00,97.65
2010.00,97.65
2009.00,97.64
2008.00,97.66
2007.00,97.71
2006.00,97.76
2005.00,97.78
2004.00,97.78
2003.00,97.77
2002.00,97.76
2001.00,97.73
2000.00,97.71
1999.00,97.70
1998.00,97.70
1997.00,97.68
1996.00,97.68
1995.00,97.69
1994.00,97.69
1993.00,97.68
1992.00,97.66
1991.00,97.66
1990.00,97.66
1989.00,97.64
1988.00,97.64
1987.00,97.64
1986.00,97.65
1985.00,97.62
1984.00,97.60
1983.00,97.58
1982.00,97.55
1981.00,97.50
1980.00,97.47
1979.00,97.48
1978.00,97.53
1977.00,97.60
1976.00,97.66
1975.00,97.71
1974.00,97.75
1973.00,97.75
1972.00,97.75
1971.00,97.77
1970.00,97.79
1969.00,97.79
1968.00,97.79
1967.00,97.80
1966.00,97.81
1965.00,97.80
1964.00,97.79
1963.00,97.80
1962.00,97.83
1961.00,97.86
1960.00,97.89
1959.00,97.93
1958.00,97.94
1957.00,97.93
1956.00,97.92
1955.00,97.92
1954.00,97.92
1953.00,97.91
1952.00,97.90
1951.00,97.91
1950.00,97.92
1949.00,97.90
1948.00,97.89
1947.00,97.90
1946.00,97.93
1945.00,97.94
1944.00,97.94
1943.00,97.95
1942.00,97.95
1941.00,97.94
1940.00,97.95
1939.00,97.96
1938.00,97.98
1937.00,97.98
1936.00,97.97
1935.00,97.97
1934.00,97.97
1933.00,97.96
1932.00,97.96
1931.00,97.98
1930.00,97.99
1929.00,97.99
1928.00,97.99
1927.00,97.99
1926.00,98.00
1925.00,98.01
1924.00,98.00
1923.00,98.01
1922.00,98.00
1921.00,97.99
1920.00,97.98
1919.00,97.99
1918.00,97.99
1917.00,97.99
1916.00,97.99
1915.00,98.00
1914.00,98.01
1913.00,98.01
1912.00,98.00
1911.00,98.00
1910.00,98.00
1909.00,97.99
1908.00,97.99
1907.00,97.99
1906.00,98.00
1905.00,97.99
1904.00,97.99
1903.00,97.99
1902.00,98.00
1901.00,97.99
1900.00,97.99
1899.00,98.00
1898.00,98.01
1897.00,98.00
1896.00,97.99
1895.00,97.99
1894.00,98.00
1893.00,98.00
1892.00,98.00
1891.00,98.01
1890.00,98.01
1889.00,98.00
1888.00,98.00
1887.00,98.01
1886.00,98.01
1885.00,98.00
1884.00,98.00
1883.00,98.00
1882.00,98.01
1881.00,98.01
1880.00,98.01
1879.00,98.01
1878.00,98.02
1877.00,98.02
1876.00,98.03
1875.00,98.04
1874.00,98.05
1873.00,98.05
1872.00,98.05
1871.00,98.05
1870.00,98.05
1869.00,98.05
1868.00,98.05
1867.00,98.06
1866.00,98.08
1865.00,98.08
1864.00,98.07
1863.00,98.08
1862.00,98.08
1861.00,98.07
1860.00,98.07
1859.00,98.08
1858.00,98.09
1857.00,98.09
1856.00,98.09
1855.00,98.09
1854.00,98.09
1853.00,98.09
1852.00,98.09
1851.00,98.10
1850.00,98.11
1849.00,98.11
1848.00,98.10
1847.00,98.11
1846.00,98.11
1845.00,98.09
1844.00,98.08
1843.00,98.09
1842.00,98.10
1841.00,98.10
1840.00,98.10
1839.00,98.10
1838.00,98.11
1837.00,98.10
1836.00,98.09
1835.00,98.10
1834.00,98.10
1833.00,98.10
1832.00,98.09
1831.00,98.08
1830.00,98.08
1829.00,98.08
1828.00,98.07
1827.00,98.08
1826.00,98.08
1825.00,98.08
1824.00,98.08
1823.00,98.08
1822.00,98.09
1821.00,98.08
1820.00,98.08
1819.00,98.10
1818.00,98.11
1817.00,98.12
1816.00,98.11
1815.00,98.11
1814.00,98.11
1813.00,98.10
1812.00,98.09
1811.00,98.08
1810.00,98.08
1809.00,98.07
1808.00,98.06
1807.00,98.07
1806.00,98.07
1805.00,98.06
1804.00,98.04
1803.00,98.03
1802.00,98.03
1801.00,98.01
1800.00,98.00
1799.00,98.00
1798.00,98.00
1797.00,98.00
1796.00,98.00
1795.00,98.00
1794.00,97.99
1793.00,97.98
1792.00,97.96
1791.00,97.95
1790.00,97.96
1789.00,97.96
1788.00,97.95
1787.00,97.94
1786.00,97.93
1785.00,97.92
1784.00,97.90
1783.00,97.90
1782.00,97.89
1781.00,97.87
1780.00,97.85
1779.00,97.84
1778.00,97.84
1777.00,97.83
1776.00,97.81
1775.00,97.81
1774.00,97.79
1773.00,97.74
1772.00,97.68
1771.00,97.64
1770.00,97.60
1769.00,97.54
1768.00,97.46
1767.00,97.39
1766.00,97.31
1765.00,97.21
1764.00,97.09
1763.00,96.96
1762.00,96.82
1761.00,96.72
1760.00,96.65
1759.00,96.61
1758.00,96.59
1757.00,96.56
1756.00,96.54
1755.00,96.54
1754.00,96.55
1753.00,96.52
1752.00,96.46
1751.00,96.39
1750.00,96.30
1749.00,96.19
1748.00,96.09
1747.00,96.00
1746.00,95.92
1745.00,95.84
1744.00,95.75
1743.00,95.68
1742.00,95.62
1741.00,95.55
1740.00,95.47
1739.00,95.43
1738.00,95.42
1737.00,95.42
1736.00,95.41
1735.00,95.40
1734.00,95.41
1733.00,95.41
1732.00,95.41
1731.00,95.42
1730.00,95.43
1729.00,95.43
1728.00,95.43
1727.00,95.44
1726.00,95.46
1725.00,95.46
1724.00,95.45
1723.00,95.45
1722.00,95.47
1721.00,95.48
1720.00,95.48
1719.00,95.49
1718.00,95.49
1717.00,95.47
1716.00,95.43
1715.00,95.40
1714.00,95.40
1713.00,95.38
1712.00,95.36
1711.00,95.35
1710.00,95.33
1709.00,95.30
1708.00,95.26
1707.00,95.21
1706.00,95.16
1705.00,95.10
1704.00,95.05
1703.00,95.01
1702.00,94.95
1701.00,94.81
1700.00,94.65
1699.00,94.57
1698.00,94.53
1697.00,94.41
1696.00,94.22
1695.00,94.02
1694.00,93.88
1693.00,93.75
1692.00,93.58
1691.00,93.39
1690.00,93.18
1689.00,92.97
1688.00,92.78
1687.00,92.63
1686.00,92.44
1685.00,92.09
1684.00,91.62
1683.00,91.23
1682.00,90.96
1681.00,90.65
1680.00,90.28
1679.00,89.91
1678.00,89.55
1677.00,89.12
1676.00,88.55
1675.00,87.94
1674.00,87.42
1673.00,86.96
1672.00,86.43
1671.00,85.73
1670.00,84.82
1669.00,83.77
1668.00,82.77
1667.00,81.90
1666.00,81.10
1665.00,80.19
1664.00,79.03
1663.00,77.70
1662.00,76.40
1661.00,75.24
1660.00,74.14
1659.00,73.08
1658.00,72.09
1657.00,71.20
1656.00,70.31
1655.00,69.24
1654.00,67.44
1653.00,65.05
1652.00,63.24
1651.00,62.22
1650.00,61.42
1649.00,60.37
1648.00,58.70
1647.00,56.54
1646.00,54.48
1645.00,52.81
1644.00,51.32
1643.00,49.85
1642.00,48.33
1641.00,46.73
1640.00,45.14
1639.00,43.65
1638.00,42.18
1637.00,40.41
1636.00,38.19
1635.00,36.15
1634.00,34.82
1633.00,34.03
1632.00,33.53
1631.00,33.32
1630.00,33.50
1629.00,34.09
1628.00,35.00
1627.00,36.06
1626.00,37.20
1625.00,38.47
1624.00,39.94
1623.00,41.60
1622.00,43.22
1621.00,44.69
1620.00,46.06
1619.00,47.54
1618.00,49.35
1617.00,51.51
1616.00,53.66
1615.00,55.44
1614.00,56.91
1613.00,58.31
1612.00,59.72
1611.00,61.09
1610.00,62.37
1609.00,63.57
1608.00,64.77
1607.00,65.97
1606.00,67.18
1605.00,68.44
1604.00,69.78
1603.00,71.12
1602.00,72.36
1601.00,73.51
1600.00,74.57
1599.00,75.53
1598.00,76.35
1597.00,77.09
1596.00,77.80
1595.00,78.43
1594.00,78.93
1593.00,79.36
1592.00,79.75
1591.00,80.07
1590.00,80.28
1589.00,80.42
1588.00,80.54
1587.00,80.60
1586.00,80.54
1585.00,80.41
1584.00,80.26
1583.00,80.05
1582.00,79.74
1581.00,79.39
1580.00,79.08
1579.00,78.77
1578.00,78.32
1577.00,77.67
1576.00,76.93
1575.00,76.24
1574.00,75.65
1573.00,75.13
1572.00,74.60
1571.00,73.87
1570.00,72.87
1569.00,71.82
1568.00,70.98
1567.00,70.22
1566.00,69.35
1565.00,68.38
1564.00,67.48
1563.00,66.76
1562.00,66.12
1561.00,65.37
1560.00,64.09
1559.00,62.15
1558.00,60.51
1557.00,59.55
1556.00,58.74
1555.00,57.74
1554.00,56.51
1553.00,55.28
1552.00,54.05
1551.00,52.64
1550.00,50.96
1549.00,49.26
1548.00,47.75
1547.00,46.31
1546.00,44.71
1545.00,42.91
1544.00,41.15
1543.00,39.57
1542.00,38.01
1541.00,36.23
1540.00,34.33
1539.00,32.85
1538.00,32.01
1537.00,31.59
1536.00,31.37
1535.00,31.27
1534.00,31.36
1533.00,31.79
1532.00,32.50
1531.00,33.38
1530.00,34.45
1529.00,35.77
1528.00,37.36
1527.00,39.17
1526.00,41.05
1525.00,42.85
1524.00,44.53
1523.00,46.32
1522.00,48.45
1521.00,50.61
1520.00,52.36
1519.00,53.79
1518.00,55.27
1517.00,56.90
1516.00,58.48
1515.00,59.84
1514.00,61.06
1513.00,62.24
1512.00,63.38
1511.00,64.45
1510.00,65.44
1509.00,66.41
1508.00,67.47
1507.00,68.71
1506.00,69.88
1505.00,70.72
1504.00,71.34
1503.00,71.93
1502.00,72.57
1501.00,73.22
1500.00,73.83
1499.00,74.43
1498.00,75.08
1497.00,75.73
1496.00,76.30
1495.00,76.81
1494.00,77.30
1493.00,77.74
1492.00,78.14
1491.00,78.57
1490.00,79.04
1489.00,79.40
1488.00,79.61
1487.00,79.74
1486.00,79.78
1485.00,79.64
1484.00,79.29
1483.00,78.69
1482.00,77.80
1481.00,76.61
1480.00,75.23
1479.00,73.73
1478.00,72.04
1477.00,70.08
1476.00,68.10
1475.00,66.48
1474.00,65.54
1473.00,65.44
1472.00,66.02
1471.00,66.76
1470.00,67.23
1469.00,67.26
1468.00,66.84
1467.00,66.04
1466.00,65.06
1465.00,64.29
1464.00,64.09
1463.00,64.46
1462.00,65.17
1461.00,66.02
1460.00,66.91
1459.00,67.82
1458.00,68.75
1457.00,69.61
1456.00,70.26
1455.00,70.73
1454.00,71.17
1453.00,71.64
1452.00,72.10
1451.00,72.52
1450.00,72.89
1449.00,73.18
1448.00,73.36
1447.00,73.45
1446.00,73.47
1445.00,73.44
1444.00,73.35
1443.00,73.20
1442.00,73.05
1441.00,72.90
1440.00,72.77
1439.00,72.65
1438.00,72.55
1437.00,72.49
1436.00,72.51
1435.00,72.63
1434.00,72.85
1433.00,73.14
1432.00,73.45
1431.00,73.77
1430.00,74.08
1429.00,74.33
1428.00,74.45
1427.00,74.45
1426.00,74.32
1425.00,74.00
1424.00,73.49
1423.00,72.87
1422.00,72.16
1421.00,71.20
1420.00,69.76
1419.00,68.07
1418.00,66.81
1417.00,66.35
1416.00,66.65
1415.00,67.54
1414.00,68.86
1413.00,70.40
1412.00,71.97
1411.00,73.44
1410.00,74.72
1409.00,75.79
1408.00,76.66
1407.00,77.40
1406.00,78.04
1405.00,78.60
1404.00,79.05
1403.00,79.39
1402.00,79.65
1401.00,79.85
1400.00,79.99
1399.00,80.05
1398.00,80.05
1397.00,80.00
1396.00,79.87
1395.00,79.62
1394.00,79.31
1393.00,79.01
1392.00,78.71
1391.00,78.40
1390.00,78.09
1389.00,77.77
1388.00,77.43
1387.00,77.08
1386.00,76.79
1385.00,76.54
1384.00,76.30
1383.00,76.00
1382.00,75.66
1381.00,75.26
1380.00,74.77
1379.00,74.19
1378.00,73.56
1377.00,72.91
1376.00,72.20
1375.00,71.46
1374.00,70.78
1373.00,70.29
1372.00,70.02
1371.00,69.94
1370.00,70.02
1369.00,70.23
1368.00,70.53
1367.00,70.87
1366.00,71.24
1365.00,71.62
1364.00,72.01
1363.00,72.39
1362.00,72.77
1361.00,73.13
1360.00,73.46
1359.00,73.78
1358.00,74.10
1357.00,74.42
1356.00,74.74
1355.00,75.07
1354.00,75.40
1353.00,75.74
1352.00,76.07
1351.00,76.39
1350.00,76.72
1349.00,77.04
1348.00,77.34
1347.00,77.61
1346.00,77.87
1345.00,78.11
1344.00,78.33
1343.00,78.54
1342.00,78.73
1341.00,78.92
1340.00,79.09
1339.00,79.25
1338.00,79.40
1337.00,79.56
1336.00,79.70
1335.00,79.82
1334.00,79.92
1333.00,80.00
1332.00,80.03
1331.00,80.05
1330.00,80.07
1329.00,80.12
1328.00,80.20
1327.00,80.30
1326.00,80.43
1325.00,80.58
1324.00,80.73
1323.00,80.86
1322.00,80.97
1321.00,81.05
1320.00,81.09
1319.00,81.10
1318.00,81.07
1317.00,81.01
1316.00,80.92
1315.00,80.81
1314.00,80.66
1313.00,80.49
1312.00,80.28
1311.00,80.06
1310.00,79.82
1309.00,79.57
1308.00,79.31
1307.00,79.06
1306.00,78.86
1305.00,78.70
1304.00,78.59
1303.00,78.53
1302.00,78.52
1301.00,78.55
1300.00,78.59
1299.00,78.63
1298.00,78.63
1297.00,78.60
1296.00,78.51
1295.00,78.38
1294.00,78.21
1293.00,78.00
1292.00,77.74
1291.00,77.43
1290.00,77.05
1289.00,76.58
1288.00,76.02
1287.00,75.34
1286.00,74.56
1285.00,73.67
1284.00,72.67
1283.00,71.55
1282.00,70.35
1281.00,69.07
1280.00,67.75
1279.00,66.48
1278.00,65.33
1277.00,64.38
1276.00,63.68
1275.00,63.24
1274.00,63.04
1273.00,63.04
1272.00,63.18
1271.00,63.45
1270.00,63.83
1269.00,64.29
1268.00,64.81
1267.00,65.38
1266.00,65.99
1265.00,66.62
1264.00,67.26
1263.00,67.92
1262.00,68.60
1261.00,69.28
1260.00,69.94
1259.00,70.59
1258.00,71.21
1257.00,71.81
1256.00,72.38
1255.00,72.93
1254.00,73.46
1253.00,73.97
1252.00,74.46
1251.00,74.93
1250.00,75.39
1249.00,75.83
1248.00,76.24
1247.00,76.61
1246.00,76.96
1245.00,77.27
1244.00,77.55
1243.00,77.79
1242.00,78.00
1241.00,78.19
1240.00,78.36
1239.00,78.51
1238.00,78.68
1237.00,78.86
1236.00,79.07
1235.00,79.31
1234.00,79.57
1233.00,79.84
1232.00,80.12
1231.00,80.36
1230.00,80.57
1229.00,80.68
1228.00,80.68
1227.00,80.54
1226.00,80.31
1225.00,80.09
1224.00,79.98
1223.00,80.06
1222.00,80.33
1221.00,80.71
1220.00,81.09
1219.00,81.39
1218.00,81.59
1217.00,81.68
1216.00,81.69
1215.00,81.62
1214.00,81.49
1213.00,81.31
1212.00,81.04
1211.00,80.66
1210.00,80.14
1209.00,79.45
1208.00,78.52
1207.00,77.35
1206.00,75.92
1205.00,74.25
1204.00,72.40
1203.00,70.51
1202.00,68.77
1201.00,67.40
1200.00,66.58
1199.00,66.46
1198.00,67.04
1197.00,68.16
1196.00,69.61
1195.00,71.18
1194.00,72.70
1193.00,74.05
1192.00,75.18
1191.00,76.07
1190.00,76.74
1189.00,77.20
1188.00,77.45
1187.00,77.51
1186.00,77.40
1185.00,77.14
1184.00,76.77
1183.00,76.33
1182.00,75.90
1181.00,75.58
1180.00,75.42
1179.00,75.48
1178.00,75.80
1177.00,76.31
1176.00,76.97
1175.00,77.68
1174.00,78.41
1173.00,79.09
1172.00,79.71
1171.00,80.28
1170.00,80.81
1169.00,81.30
1168.00,81.75
1167.00,82.17
1166.00,82.57
1165.00,82.93
1164.00,83.25
1163.00,83.53
1162.00,83.76
1161.00,83.94
1160.00,84.06
1159.00,84.11
1158.00,84.09
1157.00,84.01
1156.00,83.86
1155.00,83.65
1154.00,83.39
1153.00,83.09
1152.00,82.78
1151.00,82.48
1150.00,82.20
1149.00,81.96
1148.00,81.78
1147.00,81.65
1146.00,81.56
1145.00,81.51
1144.00,81.46
1143.00,81.38
1142.00,81.27
1141.00,81.16
1140.00,81.10
1139.00,81.16
1138.00,81.41
1137.00,81.87
1136.00,82.49
1135.00,83.19
1134.00,83.88
1133.00,84.50
1132.00,85.04
1131.00,85.47
1130.00,85.81
1129.00,86.07
1128.00,86.27
1127.00,86.42
1126.00,86.55
1125.00,86.67
1124.00,86.79
1123.00,86.90
1122.00,87.01
1121.00,87.13
1120.00,87.24
1119.00,87.34
1118.00,87.42
1117.00,87.49
1116.00,87.55
1115.00,87.61
1114.00,87.66
1113.00,87.71
1112.00,87.76
1111.00,87.81
1110.00,87.84
1109.00,87.88
1108.00,87.92
1107.00,87.95
1106.00,87.99
1105.00,88.04
1104.00,88.09
1103.00,88.13
1102.00,88.17
1101.00,88.22
1100.00,88.26
1099.00,88.30
1098.00,88.34
1097.00,88.38
1096.00,88.43
1095.00,88.47
1094.00,88.50
1093.00,88.53
1092.00,88.56
1091.00,88.59
1090.00,88.63
1089.00,88.68
1088.00,88.75
1087.00,88.83
1086.00,88.91
1085.00,89.00
1084.00,89.09
1083.00,89.16
1082.00,89.23
1081.00,89.29
1080.00,89.34
1079.00,89.38
1078.00,89.41
1077.00,89.43
1076.00,89.43
1075.00,89.41
1074.00,89.36
1073.00,89.28
1072.00,89.18
1071.00,89.04
1070.00,88.88
1069.00,88.69
1068.00,88.51
1067.00,88.35
1066.00,88.23
1065.00,88.16
1064.00,88.15
1063.00,88.17
1062.00,88.23
1061.00,88.31
1060.00,88.38
1059.00,88.43
1058.00,88.49
1057.00,88.55
1056.00,88.61
1055.00,88.66
1054.00,88.70
1053.00,88.72
1052.00,88.74
1051.00,88.73
1050.00,88.69
1049.00,88.64
1048.00,88.55
1047.00,88.45
1046.00,88.33
1045.00,88.21
1044.00,88.11
1043.00,88.04
1042.00,88.01
1041.00,88.03
1040.00,88.09
1039.00,88.19
1038.00,88.32
1037.00,88.47
1036.00,88.63
1035.00,88.78
1034.00,88.92
1033.00,89.04
1032.00,89.14
1031.00,89.23
1030.00,89.31
1029.00,89.40
1028.00,89.49
1027.00,89.56
1026.00,89.63
1025.00,89.70
1024.00,89.76
1023.00,89.81
1022.00,89.84
1021.00,89.85
1020.00,89.85
1019.00,89.84
1018.00,89.81
1017.00,89.79
1016.00,89.77
1015.00,89.76
1014.00,89.76
1013.00,89.79
1012.00,89.84
1011.00,89.91
1010.00,90.00
1009.00,90.12
1008.00,90.25
1007.00,90.38
1006.00,90.52
1005.00,90.64
1004.00,90.75
1003.00,90.83
1002.00,90.89
1001.00,90.95
1000.00,91.00
999.00,91.06
998.00,91.12
997.00,91.19
996.00,91.25
995.00,91.32
994.00,91.37
993.00,91.41
992.00,91.43
991.00,91.42
990.00,91.39
989.00,91.37
988.00,91.36
987.00,91.40
986.00,91.48
985.00,91.60
984.00,91.74
983.00,91.87
982.00,91.98
981.00,92.07
980.00,92.15
979.00,92.20
978.00,92.25
977.00,92.29
976.00,92.33
975.00,92.35
974.00,92.36
973.00,92.37
972.00,92.38
971.00,92.39
970.00,92.39
969.00,92.38
968.00,92.37
967.00,92.33
966.00,92.29
965.00,92.25
964.00,92.20
963.00,92.14
962.00,92.06
961.00,91.99
960.00,91.91
959.00,91.84
958.00,91.78
957.00,91.72
956.00,91.66
955.00,91.59
954.00,91.51
953.00,91.41
952.00,91.29
951.00,91.14
950.00,90.97
949.00,90.78
948.00,90.56
947.00,90.28
946.00,89.92
945.00,89.48
944.00,88.93
943.00,88.23
942.00,87.35
941.00,86.27
940.00,85.01
939.00,83.64
938.00,82.31
937.00,81.19
936.00,80.46
935.00,80.22
934.00,80.49
933.00,81.16
932.00,82.09
931.00,83.10
930.00,84.10
929.00,85.01
928.00,85.82
927.00,86.50
926.00,87.08
925.00,87.57
924.00,87.98
923.00,88.34
922.00,88.65
921.00,88.93
920.00,89.19
919.00,89.42
918.00,89.64
917.00,89.85
916.00,90.04
915.00,90.19
914.00,90.30
913.00,90.36
912.00,90.34
911.00,90.23
910.00,90.01
909.00,89.73
908.00,89.45
907.00,89.25
906.00,89.22
905.00,89.38
904.00,89.71
903.00,90.12
902.00,90.54
901.00,90.93
900.00,91.28
899.00,91.56
898.00,91.78
897.00,91.97
896.00,92.13
895.00,92.25
894.00,92.35
893.00,92.44
892.00,92.51
891.00,92.57
890.00,92.61
889.00,92.64
888.00,92.68
887.00,92.71
886.00,92.72
885.00,92.73
884.00,92.74
883.00,92.75
882.00,92.76
881.00,92.78
880.00,92.81
879.00,92.84
878.00,92.86
877.00,92.88
876.00,92.91
875.00,92.93
874.00,92.94
873.00,92.97
872.00,92.99
871.00,93.00
870.00,93.00
869.00,93.00
868.00,93.00
867.00,93.00
866.00,93.00
865.00,93.00
864.00,93.00
863.00,92.98
862.00,92.95
861.00,92.91
860.00,92.87
859.00,92.82
858.00,92.77
857.00,92.74
856.00,92.70
855.00,92.66
854.00,92.61
853.00,92.56
852.00,92.51
851.00,92.46
850.00,92.42
849.00,92.38
848.00,92.35
847.00,92.31
846.00,92.28
845.00,92.25
844.00,92.22
843.00,92.18
842.00,92.13
841.00,92.09
840.00,92.04
839.00,91.99
838.00,91.94
837.00,91.90
836.00,91.85
835.00,91.80
834.00,91.76
833.00,91.72
832.00,91.69
831.00,91.67
830.00,91.64
829.00,91.62
828.00,91.59
827.00,91.55
826.00,91.51
825.00,91.46
824.00,91.40
823.00,91.33
822.00,91.23
821.00,91.14
820.00,91.05
819.00,90.96
818.00,90.88
817.00,90.80
816.00,90.72
815.00,90.63
814.00,90.53
813.00,90.44
812.00,90.35
811.00,90.25
810.00,90.13
809.00,90.01
808.00,89.88
807.00,89.76
806.00,89.64
805.00,89.50
804.00,89.34
803.00,89.16
802.00,88.96
801.00,88.75
800.00,88.54
799.00,88.35
798.00,88.17
797.00,88.03
796.00,87.92
795.00,87.85
794.00,87.81
793.00,87.80
792.00,87.78
791.00,87.75
790.00,87.69
789.00,87.61
788.00,87.50
787.00,87.38
786.00,87.26
785.00,87.14
784.00,87.00
783.00,86.86
782.00,86.71
781.00,86.57
780.00,86.43
779.00,86.28
778.00,86.12
777.00,85.96
776.00,85.79
775.00,85.61
774.00,85.43
773.00,85.24
772.00,85.04
771.00,84.85
770.00,84.66
769.00,84.48
768.00,84.28
767.00,84.08
766.00,83.87
765.00,83.65
764.00,83.43
763.00,83.21
762.00,83.00
761.00,82.79
760.00,82.58
759.00,82.36
758.00,82.16
757.00,81.96
756.00,81.75
755.00,81.54
754.00,81.34
753.00,81.16
752.00,80.98
751.00,80.80
750.00,80.63
749.00,80.45
748.00,80.25
747.00,80.06
746.00,79.86
745.00,79.64
744.00,79.38
743.00,79.06
742.00,78.67
741.00,78.18
740.00,77.59
739.00,76.89
738.00,76.09
737.00,75.15
736.00,74.08
735.00,72.92
734.00,71.71
733.00,70.51
732.00,69.41
731.00,68.52
730.00,67.93
729.00,67.65
728.00,67.61
727.00,67.74
726.00,67.96
725.00,68.17
724.00,68.33
723.00,68.43
722.00,68.49
721.00,68.48
720.00,68.42
719.00,68.33
718.00,68.24
717.00,68.13
716.00,67.98
715.00,67.80
714.00,67.61
713.00,67.39
712.00,67.13
711.00,66.86
710.00,66.58
709.00,66.26
708.00,65.89
707.00,65.49
706.00,65.07
705.00,64.61
704.00,64.10
703.00,63.54
702.00,62.95
701.00,62.28
700.00,61.53
699.00,60.73
698.00,59.91
697.00,59.05
696.00,58.15
695.00,57.26
694.00,56.42
693.00,55.63
692.00,54.88
691.00,54.22
690.00,53.66
689.00,53.20
688.00,52.84
687.00,52.62
686.00,52.53
685.00,52.54
684.00,52.62
683.00,52.78
682.00,53.05
681.00,53.38
680.00,53.75
679.00,54.19
678.00,54.68
677.00,55.18
676.00,55.66
675.00,56.15
674.00,56.66
673.00,57.15
672.00,57.60
671.00,58.03
670.00,58.51
669.00,59.13
668.00,59.86
667.00,60.50
666.00,61.00
665.00,61.45
664.00,61.90
663.00,62.40
662.00,62.92
661.00,63.44
660.00,63.92
659.00,64.39
658.00,64.86
657.00,65.31
656.00,65.71
655.00,66.08
654.00,66.45
653.00,66.82
652.00,67.19
651.00,67.52
650.00,67.82
