Created as New Dataset,Nylon (6) GF
cm-1,%T
4000.00,99.66
3999.00,99.66
3998.00,99.67
3997.00,99.67
3996.00,99.68
3995.00,99.68
3994.00,99.68
3993.00,99.69
3992.00,99.69
3991.00,99.69
3990.00,99.69
3989.00,99.69
3988.00,99.69
3987.00,99.69
3986.00,99.69
3985.00,99.69
3984.00,99.69
3983.00,99.69
3982.00,99.69
3981.00,99.69
3980.00,99.70
3979.00,99.70
3978.00,99.70
3977.00,99.70
3976.00,99.70
3975.00,99.70
3974.00,99.71
3973.00,99.71
3972.00,99.71
3971.00,99.71
3970.00,99.71
3969.00,99.71
3968.00,99.71
3967.00,99.71
3966.00,99.71
3965.00,99.71
3964.00,99.72
3963.00,99.72
3962.00,99.72
3961.00,99.72
3960.00,99.72
3959.00,99.71
3958.00,99.71
3957.00,99.71
3956.00,99.71
3955.00,99.71
3954.00,99.71
3953.00,99.71
3952.00,99.71
3951.00,99.72
3950.00,99.72
3949.00,99.72
3948.00,99.72
3947.00,99.72
3946.00,99.73
3945.00,99.73
3944.00,99.73
3943.00,99.73
3942.00,99.73
3941.00,99.73
3940.00,99.73
3939.00,99.73
3938.00,99.73
3937.00,99.73
3936.00,99.73
3935.00,99.73
3934.00,99.73
3933.00,99.73
3932.00,99.73
3931.00,99.73
3930.00,99.73
3929.00,99.74
3928.00,99.74
3927.00,99.74
3926.00,99.75
3925.00,99.75
3924.00,99.75
3923.00,99.74
3922.00,99.74
3921.00,99.74
3920.00,99.74
3919.00,99.75
3918.00,99.75
3917.00,99.75
3916.00,99.75
3915.00,99.75
3914.00,99.75
3913.00,99.75
3912.00,99.75
3911.00,99.75
3910.00,99.75
3909.00,99.75
3908.00,99.75
3907.00,99.75
3906.00,99.75
3905.00,99.75
3904.00,99.76
3903.00,99.76
3902.00,99.76
3901.00,99.76
3900.00,99.76
3899.00,99.77
3898.00,99.77
3897.00,99.77
3896.00,99.77
3895.00,99.76
3894.00,99.77
3893.00,99.77
3892.00,99.77
3891.00,99.77
3890.00,99.78
3889.00,99.77
3888.00,99.77
3887.00,99.76
3886.00,99.76
3885.00,99.76
3884.00,99.76
3883.00,99.77
3882.00,99.77
3881.00,99.77
3880.00,99.77
3879.00,99.77
3878.00,99.77
3877.00,99.77
3876.00,99.77
3875.00,99.77
3874.00,99.77
3873.00,99.77
3872.00,99.77
3871.00,99.77
3870.00,99.77
3869.00,99.77
3868.00,99.77
3867.00,99.77
3866.00,99.77
3865.00,99.77
3864.00,99.77
3863.00,99.77
3862.00,99.77
3861.00,99.76
3860.00,99.76
3859.00,99.76
3858.00,99.76
3857.00,99.76
3856.00,99.76
3855.00,99.76
3854.00,99.76
3853.00,99.77
3852.00,99.78
3851.00,99.78
3850.00,99.77
3849.00,99.76
3848.00,99.75
3847.00,99.75
3846.00,99.75
3845.00,99.75
3844.00,99.76
3843.00,99.76
3842.00,99.76
3841.00,99.77
3840.00,99.77
3839.00,99.77
3838.00,99.77
3837.00,99.77
3836.00,99.77
3835.00,99.77
3834.00,99.77
3833.00,99.76
3832.00,99.76
3831.00,99.76
3830.00,99.76
3829.00,99.75
3828.00,99.75
3827.00,99.75
3826.00,99.75
3825.00,99.75
3824.00,99.75
3823.00,99.75
3822.00,99.75
3821.00,99.76
3820.00,99.76
3819.00,99.77
3818.00,99.77
3817.00,99.77
3816.00,99.77
3815.00,99.77
3814.00,99.77
3813.00,99.77
3812.00,99.76
3811.00,99.76
3810.00,99.76
3809.00,99.76
3808.00,99.76
3807.00,99.76
3806.00,99.76
3805.00,99.76
3804.00,99.76
3803.00,99.76
3802.00,99.76
3801.00,99.77
3800.00,99.77
3799.00,99.77
3798.00,99.77
3797.00,99.76
3796.00,99.75
3795.00,99.75
3794.00,99.75
3793.00,99.75
3792.00,99.75
3791.00,99.75
3790.00,99.75
3789.00,99.75
3788.00,99.75
3787.00,99.75
3786.00,99.75
3785.00,99.75
3784.00,99.75
3783.00,99.75
3782.00,99.74
3781.00,99.74
3780.00,99.74
3779.00,99.74
3778.00,99.74
3777.00,99.75
3776.00,99.75
3775.00,99.74
3774.00,99.74
3773.00,99.74
3772.00,99.73
3771.00,99.73
3770.00,99.74
3769.00,99.74
3768.00,99.75
3767.00,99.74
3766.00,99.74
3765.00,99.73
3764.00,99.73
3763.00,99.73
3762.00,99.73
3761.00,99.73
3760.00,99.73
3759.00,99.73
3758.00,99.73
3757.00,99.73
3756.00,99.73
3755.00,99.73
3754.00,99.73
3753.00,99.73
3752.00,99.74
3751.00,99.74
3750.00,99.74
3749.00,99.74
3748.00,99.74
3747.00,99.74
3746.00,99.74
3745.00,99.74
3744.00,99.74
3743.00,99.74
3742.00,99.74
3741.00,99.73
3740.00,99.72
3739.00,99.72
3738.00,99.72
3737.00,99.73
3736.00,99.73
3735.00,99.74
3734.00,99.74
3733.00,99.74
3732.00,99.74
3731.00,99.74
3730.00,99.74
3729.00,99.74
3728.00,99.73
3727.00,99.73
3726.00,99.73
3725.00,99.73
3724.00,99.73
3723.00,99.73
3722.00,99.72
3721.00,99.72
3720.00,99.72
3719.00,99.71
3718.00,99.71
3717.00,99.70
3716.00,99.70
3715.00,99.71
3714.00,99.71
3713.00,99.72
3712.00,99.72
3711.00,99.72
3710.00,99.72
3709.00,99.71
3708.00,99.71
3707.00,99.71
3706.00,99.71
3705.00,99.70
3704.00,99.70
3703.00,99.70
3702.00,99.69
3701.00,99.69
3700.00,99.69
3699.00,99.69
3698.00,99.69
3697.00,99.69
3696.00,99.69
3695.00,99.69
3694.00,99.68
3693.00,99.67
3692.00,99.67
3691.00,99.66
3690.00,99.66
3689.00,99.66
3688.00,99.66
3687.00,99.65
3686.00,99.63
3685.00,99.61
3684.00,99.59
3683.00,99.57
3682.00,99.56
3681.00,99.55
3680.00,99.54
3679.00,99.53
3678.00,99.53
3677.00,99.52
3676.00,99.51
3675.00,99.51
3674.00,99.51
3673.00,99.51
3672.00,99.50
3671.00,99.49
3670.00,99.49
3669.00,99.49
3668.00,99.49
3667.00,99.48
3666.00,99.48
3665.00,99.47
3664.00,99.46
3663.00,99.46
3662.00,99.46
3661.00,99.45
3660.00,99.44
3659.00,99.44
3658.00,99.43
3657.00,99.42
3656.00,99.41
3655.00,99.40
3654.00,99.40
3653.00,99.39
3652.00,99.38
3651.00,99.37
3650.00,99.37
3649.00,99.36
3648.00,99.36
3647.00,99.35
3646.00,99.34
3645.00,99.33
3644.00,99.32
3643.00,99.31
3642.00,99.30
3641.00,99.28
3640.00,99.27
3639.00,99.25
3638.00,99.24
3637.00,99.23
3636.00,99.22
3635.00,99.21
3634.00,99.20
3633.00,99.19
3632.00,99.18
3631.00,99.17
3630.00,99.15
3629.00,99.14
3628.00,99.13
3627.00,99.12
3626.00,99.10
3625.00,99.09
3624.00,99.07
3623.00,99.06
3622.00,99.04
3621.00,99.03
3620.00,99.01
3619.00,98.99
3618.00,98.98
3617.00,98.97
3616.00,98.96
3615.00,98.94
3614.00,98.93
3613.00,98.91
3612.00,98.89
3611.00,98.88
3610.00,98.86
3609.00,98.84
3608.00,98.82
3607.00,98.80
3606.00,98.78
3605.00,98.76
3604.00,98.75
3603.00,98.73
3602.00,98.71
3601.00,98.69
3600.00,98.67
3599.00,98.65
3598.00,98.63
3597.00,98.62
3596.00,98.60
3595.00,98.58
3594.00,98.56
3593.00,98.53
3592.00,98.52
3591.00,98.50
3590.00,98.48
3589.00,98.46
3588.00,98.43
3587.00,98.41
3586.00,98.38
3585.00,98.36
3584.00,98.34
3583.00,98.32
3582.00,98.29
3581.00,98.27
3580.00,98.24
3579.00,98.21
3578.00,98.19
3577.00,98.16
3576.00,98.14
3575.00,98.11
3574.00,98.09
3573.00,98.06
3572.00,98.04
3571.00,98.02
3570.00,97.99
3569.00,97.97
3568.00,97.93
3567.00,97.90
3566.00,97.86
3565.00,97.83
3564.00,97.80
3563.00,97.77
3562.00,97.74
3561.00,97.71
3560.00,97.68
3559.00,97.65
3558.00,97.62
3557.00,97.59
3556.00,97.56
3555.00,97.53
3554.00,97.49
3553.00,97.46
3552.00,97.43
3551.00,97.40
3550.00,97.37
3549.00,97.34
3548.00,97.31
3547.00,97.27
3546.00,97.23
3545.00,97.19
3544.00,97.15
3543.00,97.12
3542.00,97.09
3541.00,97.05
3540.00,97.02
3539.00,96.99
3538.00,96.95
3537.00,96.91
3536.00,96.87
3535.00,96.84
3534.00,96.80
3533.00,96.77
3532.00,96.73
3531.00,96.70
3530.00,96.66
3529.00,96.62
3528.00,96.59
3527.00,96.55
3526.00,96.52
3525.00,96.48
3524.00,96.44
3523.00,96.41
3522.00,96.37
3521.00,96.34
3520.00,96.31
3519.00,96.28
3518.00,96.24
3517.00,96.21
3516.00,96.17
3515.00,96.14
3514.00,96.10
3513.00,96.07
3512.00,96.04
3511.00,96.01
3510.00,95.98
3509.00,95.96
3508.00,95.93
3507.00,95.90
3506.00,95.87
3505.00,95.84
3504.00,95.81
3503.00,95.79
3502.00,95.76
3501.00,95.74
3500.00,95.71
3499.00,95.69
3498.00,95.67
3497.00,95.64
3496.00,95.62
3495.00,95.61
3494.00,95.59
3493.00,95.57
3492.00,95.56
3491.00,95.54
3490.00,95.53
3489.00,95.51
3488.00,95.49
3487.00,95.48
3486.00,95.46
3485.00,95.44
3484.00,95.43
3483.00,95.42
3482.00,95.40
3481.00,95.39
3480.00,95.38
3479.00,95.37
3478.00,95.37
3477.00,95.36
3476.00,95.35
3475.00,95.34
3474.00,95.33
3473.00,95.31
3472.00,95.30
3471.00,95.29
3470.00,95.28
3469.00,95.26
3468.00,95.25
3467.00,95.24
3466.00,95.22
3465.00,95.21
3464.00,95.20
3463.00,95.19
3462.00,95.18
3461.00,95.17
3460.00,95.16
3459.00,95.15
3458.00,95.13
3457.00,95.12
3456.00,95.11
3455.00,95.10
3454.00,95.08
3453.00,95.07
3452.00,95.06
3451.00,95.04
3450.00,95.03
3449.00,95.02
3448.00,95.01
3447.00,95.01
3446.00,95.00
3445.00,94.99
3444.00,94.98
3443.00,94.97
3442.00,94.95
3441.00,94.94
3440.00,94.93
3439.00,94.92
3438.00,94.90
3437.00,94.89
3436.00,94.88
3435.00,94.87
3434.00,94.85
3433.00,94.84
3432.00,94.83
3431.00,94.81
3430.00,94.80
3429.00,94.78
3428.00,94.76
3427.00,94.75
3426.00,94.73
3425.00,94.71
3424.00,94.70
3423.00,94.68
3422.00,94.66
3421.00,94.64
3420.00,94.63
3419.00,94.61
3418.00,94.59
3417.00,94.57
3416.00,94.54
3415.00,94.52
3414.00,94.50
3413.00,94.48
3412.00,94.46
3411.00,94.44
3410.00,94.42
3409.00,94.39
3408.00,94.37
3407.00,94.34
3406.00,94.32
3405.00,94.30
3404.00,94.27
3403.00,94.24
3402.00,94.21
3401.00,94.18
3400.00,94.15
3399.00,94.12
3398.00,94.09
3397.00,94.06
3396.00,94.03
3395.00,93.99
3394.00,93.95
3393.00,93.91
3392.00,93.87
3391.00,93.83
3390.00,93.78
3389.00,93.73
3388.00,93.68
3387.00,93.63
3386.00,93.58
3385.00,93.52
3384.00,93.47
3383.00,93.41
3382.00,93.36
3381.00,93.30
3380.00,93.23
3379.00,93.16
3378.00,93.09
3377.00,93.01
3376.00,92.93
3375.00,92.85
3374.00,92.77
3373.00,92.68
3372.00,92.59
3371.00,92.50
3370.00,92.40
3369.00,92.30
3368.00,92.19
3367.00,92.08
3366.00,91.96
3365.00,91.83
3364.00,91.71
3363.00,91.58
3362.00,91.44
3361.00,91.30
3360.00,91.15
3359.00,91.00
3358.00,90.83
3357.00,90.66
3356.00,90.49
3355.00,90.31
3354.00,90.12
3353.00,89.92
3352.00,89.72
3351.00,89.51
3350.00,89.30
3349.00,89.07
3348.00,88.83
3347.00,88.58
3346.00,88.32
3345.00,88.05
3344.00,87.77
3343.00,87.48
3342.00,87.18
3341.00,86.86
3340.00,86.54
3339.00,86.20
3338.00,85.84
3337.00,85.46
3336.00,85.06
3335.00,84.66
3334.00,84.24
3333.00,83.80
3332.00,83.34
3331.00,82.86
3330.00,82.37
3329.00,81.86
3328.00,81.34
3327.00,80.79
3326.00,80.23
3325.00,79.65
3324.00,79.07
3323.00,78.46
3322.00,77.85
3321.00,77.22
3320.00,76.58
3319.00,75.92
3318.00,75.25
3317.00,74.56
3316.00,73.85
3315.00,73.12
3314.00,72.37
3313.00,71.60
3312.00,70.82
3311.00,70.03
3310.00,69.24
3309.00,68.46
3308.00,67.69
3307.00,66.94
3306.00,66.24
3305.00,65.58
3304.00,64.98
3303.00,64.44
3302.00,63.99
3301.00,63.62
3300.00,63.35
3299.00,63.16
3298.00,63.06
3297.00,63.05
3296.00,63.10
3295.00,63.22
3294.00,63.40
3293.00,63.62
3292.00,63.88
3291.00,64.17
3290.00,64.48
3289.00,64.82
3288.00,65.18
3287.00,65.54
3286.00,65.92
3285.00,66.31
3284.00,66.70
3283.00,67.09
3282.00,67.48
3281.00,67.87
3280.00,68.25
3279.00,68.64
3278.00,69.03
3277.00,69.42
3276.00,69.81
3275.00,70.20
3274.00,70.59
3273.00,70.99
3272.00,71.38
3271.00,71.78
3270.00,72.18
3269.00,72.58
3268.00,72.99
3267.00,73.41
3266.00,73.83
3265.00,74.27
3264.00,74.70
3263.00,75.14
3262.00,75.57
3261.00,76.00
3260.00,76.43
3259.00,76.85
3258.00,77.28
3257.00,77.70
3256.00,78.10
3255.00,78.50
3254.00,78.89
3253.00,79.28
3252.00,79.66
3251.00,80.05
3250.00,80.43
3249.00,80.80
3248.00,81.16
3247.00,81.52
3246.00,81.86
3245.00,82.19
3244.00,82.51
3243.00,82.83
3242.00,83.15
3241.00,83.45
3240.00,83.75
3239.00,84.04
3238.00,84.33
3237.00,84.60
3236.00,84.87
3235.00,85.13
3234.00,85.37
3233.00,85.60
3232.00,85.81
3231.00,86.01
3230.00,86.21
3229.00,86.40
3228.00,86.58
3227.00,86.76
3226.00,86.92
3225.00,87.08
3224.00,87.23
3223.00,87.38
3222.00,87.51
3221.00,87.64
3220.00,87.76
3219.00,87.88
3218.00,87.99
3217.00,88.09
3216.00,88.19
3215.00,88.28
3214.00,88.37
3213.00,88.46
3212.00,88.54
3211.00,88.63
3210.00,88.71
3209.00,88.79
3208.00,88.87
3207.00,88.95
3206.00,89.03
3205.00,89.11
3204.00,89.20
3203.00,89.30
3202.00,89.39
3201.00,89.48
3200.00,89.58
3199.00,89.69
3198.00,89.80
3197.00,89.91
3196.00,90.02
3195.00,90.14
3194.00,90.26
3193.00,90.38
3192.00,90.50
3191.00,90.62
3190.00,90.75
3189.00,90.87
3188.00,90.99
3187.00,91.12
3186.00,91.25
3185.00,91.37
3184.00,91.50
3183.00,91.63
3182.00,91.75
3181.00,91.88
3180.00,92.00
3179.00,92.13
3178.00,92.26
3177.00,92.38
3176.00,92.50
3175.00,92.62
3174.00,92.74
3173.00,92.85
3172.00,92.97
3171.00,93.07
3170.00,93.18
3169.00,93.28
3168.00,93.37
3167.00,93.46
3166.00,93.55
3165.00,93.63
3164.00,93.71
3163.00,93.79
3162.00,93.86
3161.00,93.93
3160.00,93.99
3159.00,94.05
3158.00,94.11
3157.00,94.17
3156.00,94.23
3155.00,94.28
3154.00,94.33
3153.00,94.38
3152.00,94.41
3151.00,94.44
3150.00,94.47
3149.00,94.49
3148.00,94.51
3147.00,94.53
3146.00,94.54
3145.00,94.56
3144.00,94.57
3143.00,94.59
3142.00,94.60
3141.00,94.60
3140.00,94.60
3139.00,94.59
3138.00,94.58
3137.00,94.56
3136.00,94.53
3135.00,94.51
3134.00,94.48
3133.00,94.45
3132.00,94.43
3131.00,94.39
3130.00,94.35
3129.00,94.30
3128.00,94.24
3127.00,94.18
3126.00,94.12
3125.00,94.06
3124.00,93.99
3123.00,93.92
3122.00,93.85
3121.00,93.76
3120.00,93.67
3119.00,93.57
3118.00,93.46
3117.00,93.33
3116.00,93.20
3115.00,93.05
3114.00,92.90
3113.00,92.74
3112.00,92.59
3111.00,92.43
3110.00,92.27
3109.00,92.10
3108.00,91.92
3107.00,91.74
3106.00,91.55
3105.00,91.37
3104.00,91.19
3103.00,91.02
3102.00,90.85
3101.00,90.69
3100.00,90.53
3099.00,90.37
3098.00,90.22
3097.00,90.08
3096.00,89.95
3095.00,89.84
3094.00,89.75
3093.00,89.68
3092.00,89.62
3091.00,89.57
3090.00,89.52
3089.00,89.49
3088.00,89.48
3087.00,89.48
3086.00,89.49
3085.00,89.51
3084.00,89.54
3083.00,89.59
3082.00,89.65
3081.00,89.72
3080.00,89.79
3079.00,89.88
3078.00,89.96
3077.00,90.05
3076.00,90.14
3075.00,90.24
3074.00,90.35
3073.00,90.47
3072.00,90.60
3071.00,90.74
3070.00,90.88
3069.00,91.02
3068.00,91.17
3067.00,91.31
3066.00,91.45
3065.00,91.59
3064.00,91.73
3063.00,91.88
3062.00,92.03
3061.00,92.19
3060.00,92.35
3059.00,92.51
3058.00,92.68
3057.00,92.85
3056.00,93.02
3055.00,93.18
3054.00,93.35
3053.00,93.51
3052.00,93.68
3051.00,93.84
3050.00,93.99
3049.00,94.15
3048.00,94.30
3047.00,94.45
3046.00,94.60
3045.00,94.74
3044.00,94.87
3043.00,94.99
3042.00,95.11
3041.00,95.22
3040.00,95.31
3039.00,95.41
3038.00,95.50
3037.00,95.60
3036.00,95.69
3035.00,95.78
3034.00,95.85
3033.00,95.91
3032.00,95.97
3031.00,96.03
3030.00,96.08
3029.00,96.13
3028.00,96.18
3027.00,96.23
3026.00,96.27
3025.00,96.31
3024.00,96.34
3023.00,96.37
3022.00,96.40
3021.00,96.43
3020.00,96.46
3019.00,96.49
3018.00,96.52
3017.00,96.54
3016.00,96.57
3015.00,96.59
3014.00,96.60
3013.00,96.61
3012.00,96.61
3011.00,96.61
3010.00,96.61
3009.00,96.61
3008.00,96.61
3007.00,96.61
3006.00,96.61
3005.00,96.61
3004.00,96.60
3003.00,96.58
3002.00,96.56
3001.00,96.54
3000.00,96.53
2999.00,96.50
2998.00,96.47
2997.00,96.43
2996.00,96.39
2995.00,96.34
2994.00,96.28
2993.00,96.22
2992.00,96.15
2991.00,96.07
2990.00,95.98
2989.00,95.88
2988.00,95.77
2987.00,95.65
2986.00,95.51
2985.00,95.35
2984.00,95.18
2983.00,95.00
2982.00,94.79
2981.00,94.58
2980.00,94.34
2979.00,94.09
2978.00,93.81
2977.00,93.51
2976.00,93.19
2975.00,92.84
2974.00,92.46
2973.00,92.06
2972.00,91.63
2971.00,91.18
2970.00,90.70
2969.00,90.20
2968.00,89.69
2967.00,89.17
2966.00,88.65
2965.00,88.14
2964.00,87.63
2963.00,87.14
2962.00,86.65
2961.00,86.15
2960.00,85.66
2959.00,85.14
2958.00,84.59
2957.00,84.01
2956.00,83.38
2955.00,82.70
2954.00,81.96
2953.00,81.17
2952.00,80.34
2951.00,79.46
2950.00,78.57
2949.00,77.67
2948.00,76.79
2947.00,75.94
2946.00,75.14
2945.00,74.39
2944.00,73.68
2943.00,73.02
2942.00,72.38
2941.00,71.77
2940.00,71.19
2939.00,70.63
2938.00,70.10
2937.00,69.62
2936.00,69.20
2935.00,68.84
2934.00,68.56
2933.00,68.36
2932.00,68.24
2931.00,68.19
2930.00,68.19
2929.00,68.25
2928.00,68.35
2927.00,68.48
2926.00,68.66
2925.00,68.88
2924.00,69.14
2923.00,69.46
2922.00,69.84
2921.00,70.28
2920.00,70.81
2919.00,71.41
2918.00,72.08
2917.00,72.82
2916.00,73.61
2915.00,74.45
2914.00,75.29
2913.00,76.11
2912.00,76.90
2911.00,77.63
2910.00,78.31
2909.00,78.94
2908.00,79.53
2907.00,80.07
2906.00,80.58
2905.00,81.05
2904.00,81.48
2903.00,81.88
2902.00,82.25
2901.00,82.60
2900.00,82.93
2899.00,83.26
2898.00,83.61
2897.00,83.96
2896.00,84.33
2895.00,84.69
2894.00,85.05
2893.00,85.39
2892.00,85.70
2891.00,85.97
2890.00,86.20
2889.00,86.39
2888.00,86.52
2887.00,86.61
2886.00,86.64
2885.00,86.61
2884.00,86.52
2883.00,86.37
2882.00,86.15
2881.00,85.86
2880.00,85.50
2879.00,85.09
2878.00,84.63
2877.00,84.13
2876.00,83.60
2875.00,83.05
2874.00,82.49
2873.00,81.94
2872.00,81.41
2871.00,80.90
2870.00,80.42
2869.00,79.94
2868.00,79.49
2867.00,79.03
2866.00,78.59
2865.00,78.14
2864.00,77.71
2863.00,77.31
2862.00,76.94
2861.00,76.64
2860.00,76.40
2859.00,76.25
2858.00,76.20
2857.00,76.27
2856.00,76.47
2855.00,76.80
2854.00,77.25
2853.00,77.83
2852.00,78.54
2851.00,79.38
2850.00,80.36
2849.00,81.47
2848.00,82.69
2847.00,83.96
2846.00,85.24
2845.00,86.48
2844.00,87.64
2843.00,88.69
2842.00,89.62
2841.00,90.42
2840.00,91.09
2839.00,91.65
2838.00,92.13
2837.00,92.53
2836.00,92.86
2835.00,93.15
2834.00,93.40
2833.00,93.61
2832.00,93.81
2831.00,93.98
2830.00,94.13
2829.00,94.27
2828.00,94.39
2827.00,94.51
2826.00,94.62
2825.00,94.72
2824.00,94.82
2823.00,94.91
2822.00,95.00
2821.00,95.09
2820.00,95.19
2819.00,95.28
2818.00,95.38
2817.00,95.47
2816.00,95.56
2815.00,95.65
2814.00,95.74
2813.00,95.83
2812.00,95.91
2811.00,95.99
2810.00,96.06
2809.00,96.13
2808.00,96.20
2807.00,96.26
2806.00,96.31
2805.00,96.37
2804.00,96.42
2803.00,96.46
2802.00,96.51
2801.00,96.55
2800.00,96.60
2799.00,96.64
2798.00,96.68
2797.00,96.72
2796.00,96.77
2795.00,96.81
2794.00,96.85
2793.00,96.89
2792.00,96.93
2791.00,96.97
2790.00,97.01
2789.00,97.05
2788.00,97.09
2787.00,97.12
2786.00,97.16
2785.00,97.20
2784.00,97.23
2783.00,97.27
2782.00,97.30
2781.00,97.33
2780.00,97.36
2779.00,97.40
2778.00,97.43
2777.00,97.46
2776.00,97.49
2775.00,97.52
2774.00,97.55
2773.00,97.58
2772.00,97.61
2771.00,97.63
2770.00,97.66
2769.00,97.68
2768.00,97.70
2767.00,97.73
2766.00,97.75
2765.00,97.77
2764.00,97.79
2763.00,97.81
2762.00,97.82
2761.00,97.83
2760.00,97.85
2759.00,97.86
2758.00,97.87
2757.00,97.88
2756.00,97.89
2755.00,97.90
2754.00,97.91
2753.00,97.92
2752.00,97.92
2751.00,97.92
2750.00,97.93
2749.00,97.93
2748.00,97.94
2747.00,97.95
2746.00,97.96
2745.00,97.96
2744.00,97.97
2743.00,97.98
2742.00,97.99
2741.00,98.00
2740.00,98.01
2739.00,98.02
2738.00,98.04
2737.00,98.05
2736.00,98.07
2735.00,98.08
2734.00,98.10
2733.00,98.12
2732.00,98.13
2731.00,98.15
2730.00,98.17
2729.00,98.19
2728.00,98.21
2727.00,98.22
2726.00,98.24
2725.00,98.26
2724.00,98.28
2723.00,98.29
2722.00,98.31
2721.00,98.33
2720.00,98.35
2719.00,98.36
2718.00,98.38
2717.00,98.39
2716.00,98.41
2715.00,98.42
2714.00,98.44
2713.00,98.45
2712.00,98.46
2711.00,98.47
2710.00,98.48
2709.00,98.49
2708.00,98.49
2707.00,98.50
2706.00,98.51
2705.00,98.51
2704.00,98.51
2703.00,98.52
2702.00,98.52
2701.00,98.53
2700.00,98.54
2699.00,98.55
2698.00,98.56
2697.00,98.57
2696.00,98.57
2695.00,98.58
2694.00,98.59
2693.00,98.59
2692.00,98.60
2691.00,98.61
2690.00,98.61
2689.00,98.62
2688.00,98.62
2687.00,98.63
2686.00,98.64
2685.00,98.64
2684.00,98.65
2683.00,98.66
2682.00,98.66
2681.00,98.67
2680.00,98.67
2679.00,98.68
2678.00,98.68
2677.00,98.69
2676.00,98.69
2675.00,98.70
2674.00,98.70
2673.00,98.71
2672.00,98.71
2671.00,98.72
2670.00,98.72
2669.00,98.73
2668.00,98.73
2667.00,98.73
2666.00,98.73
2665.00,98.73
2664.00,98.72
2663.00,98.72
2662.00,98.71
2661.00,98.71
2660.00,98.70
2659.00,98.70
2658.00,98.70
2657.00,98.70
2656.00,98.70
2655.00,98.70
2654.00,98.70
2653.00,98.70
2652.00,98.70
2651.00,98.71
2650.00,98.71
2649.00,98.71
2648.00,98.72
2647.00,98.72
2646.00,98.72
2645.00,98.73
2644.00,98.73
2643.00,98.74
2642.00,98.74
2641.00,98.74
2640.00,98.74
2639.00,98.75
2638.00,98.75
2637.00,98.75
2636.00,98.75
2635.00,98.76
2634.00,98.76
2633.00,98.76
2632.00,98.77
2631.00,98.77
2630.00,98.77
2629.00,98.78
2628.00,98.78
2627.00,98.79
2626.00,98.79
2625.00,98.80
2624.00,98.80
2623.00,98.81
2622.00,98.81
2621.00,98.81
2620.00,98.82
2619.00,98.82
2618.00,98.83
2617.00,98.83
2616.00,98.84
2615.00,98.85
2614.00,98.86
2613.00,98.86
2612.00,98.87
2611.00,98.87
2610.00,98.88
2609.00,98.88
2608.00,98.89
2607.00,98.90
2606.00,98.91
2605.00,98.91
2604.00,98.91
2603.00,98.92
2602.00,98.92
2601.00,98.92
2600.00,98.93
2599.00,98.93
2598.00,98.94
2597.00,98.95
2596.00,98.95
2595.00,98.95
2594.00,98.95
2593.00,98.95
2592.00,98.95
2591.00,98.96
2590.00,98.96
2589.00,98.96
2588.00,98.96
2587.00,98.97
2586.00,98.97
2585.00,98.97
2584.00,98.97
2583.00,98.97
2582.00,98.97
2581.00,98.97
2580.00,98.98
2579.00,98.98
2578.00,98.99
2577.00,98.99
2576.00,99.00
2575.00,99.00
2574.00,99.00
2573.00,99.00
2572.00,99.01
2571.00,99.01
2570.00,99.02
2569.00,99.02
2568.00,99.02
2567.00,99.02
2566.00,99.02
2565.00,99.02
2564.00,99.02
2563.00,99.02
2562.00,99.03
2561.00,99.03
2560.00,99.03
2559.00,99.03
2558.00,99.03
2557.00,99.03
2556.00,99.03
2555.00,99.03
2554.00,99.03
2553.00,99.03
2552.00,99.03
2551.00,99.04
2550.00,99.04
2549.00,99.04
2548.00,99.05
2547.00,99.06
2546.00,99.06
2545.00,99.06
2544.00,99.07
2543.00,99.08
2542.00,99.08
2541.00,99.08
2540.00,99.09
2539.00,99.09
2538.00,99.10
2537.00,99.11
2536.00,99.11
2535.00,99.12
2534.00,99.12
2533.00,99.13
2532.00,99.13
2531.00,99.14
2530.00,99.15
2529.00,99.15
2528.00,99.16
2527.00,99.17
2526.00,99.17
2525.00,99.18
2524.00,99.19
2523.00,99.20
2522.00,99.20
2521.00,99.20
2520.00,99.20
2519.00,99.21
2518.00,99.22
2517.00,99.22
2516.00,99.22
2515.00,99.22
2514.00,99.23
2513.00,99.23
2512.00,99.24
2511.00,99.25
2510.00,99.25
2509.00,99.25
2508.00,99.25
2507.00,99.25
2506.00,99.26
2505.00,99.26
2504.00,99.27
2503.00,99.27
2502.00,99.27
2501.00,99.27
2500.00,99.27
2499.00,99.28
2498.00,99.28
2497.00,99.27
2496.00,99.27
2495.00,99.27
2494.00,99.27
2493.00,99.27
2492.00,99.27
2491.00,99.27
2490.00,99.27
2489.00,99.27
2488.00,99.27
2487.00,99.28
2486.00,99.28
2485.00,99.27
2484.00,99.27
2483.00,99.27
2482.00,99.27
2481.00,99.27
2480.00,99.27
2479.00,99.27
2478.00,99.27
2477.00,99.26
2476.00,99.26
2475.00,99.27
2474.00,99.27
2473.00,99.28
2472.00,99.28
2471.00,99.28
2470.00,99.28
2469.00,99.28
2468.00,99.28
2467.00,99.28
2466.00,99.29
2465.00,99.29
2464.00,99.29
2463.00,99.29
2462.00,99.29
2461.00,99.29
2460.00,99.30
2459.00,99.30
2458.00,99.29
2457.00,99.29
2456.00,99.29
2455.00,99.29
2454.00,99.29
2453.00,99.29
2452.00,99.29
2451.00,99.29
2450.00,99.29
2449.00,99.29
2448.00,99.30
2447.00,99.30
2446.00,99.31
2445.00,99.31
2444.00,99.31
2443.00,99.32
2442.00,99.33
2441.00,99.33
2440.00,99.34
2439.00,99.34
2438.00,99.34
2437.00,99.35
2436.00,99.35
2435.00,99.35
2434.00,99.35
2433.00,99.35
2432.00,99.35
2431.00,99.36
2430.00,99.37
2429.00,99.37
2428.00,99.37
2427.00,99.37
2426.00,99.37
2425.00,99.37
2424.00,99.38
2423.00,99.38
2422.00,99.38
2421.00,99.37
2420.00,99.37
2419.00,99.38
2418.00,99.38
2417.00,99.38
2416.00,99.38
2415.00,99.38
2414.00,99.38
2413.00,99.38
2412.00,99.38
2411.00,99.37
2410.00,99.37
2409.00,99.37
2408.00,99.37
2407.00,99.39
2406.00,99.40
2405.00,99.40
2404.00,99.41
2403.00,99.41
2402.00,99.41
2401.00,99.41
2400.00,99.41
2399.00,99.41
2398.00,99.41
2397.00,99.41
2396.00,99.41
2395.00,99.41
2394.00,99.41
2393.00,99.41
2392.00,99.41
2391.00,99.41
2390.00,99.41
2389.00,99.41
2388.00,99.41
2387.00,99.41
2386.00,99.42
2385.00,99.42
2384.00,99.43
2383.00,99.44
2382.00,99.45
2381.00,99.46
2380.00,99.47
2379.00,99.49
2378.00,99.51
2377.00,99.53
2376.00,99.55
2375.00,99.57
2374.00,99.59
2373.00,99.59
2372.00,99.60
2371.00,99.60
2370.00,99.60
2369.00,99.59
2368.00,99.58
2367.00,99.56
2366.00,99.54
2365.00,99.53
2364.00,99.53
2363.00,99.54
2362.00,99.55
2361.00,99.54
2360.00,99.53
2359.00,99.53
2358.00,99.52
2357.00,99.52
2356.00,99.52
2355.00,99.54
2354.00,99.54
2353.00,99.54
2352.00,99.53
2351.00,99.53
2350.00,99.52
2349.00,99.51
2348.00,99.50
2347.00,99.51
2346.00,99.50
2345.00,99.50
2344.00,99.48
2343.00,99.47
2342.00,99.47
2341.00,99.46
2340.00,99.46
2339.00,99.45
2338.00,99.45
2337.00,99.44
2336.00,99.43
2335.00,99.43
2334.00,99.44
2333.00,99.43
2332.00,99.43
2331.00,99.43
2330.00,99.43
2329.00,99.42
2328.00,99.41
2327.00,99.38
2326.00,99.33
2325.00,99.27
2324.00,99.23
2323.00,99.22
2322.00,99.24
2321.00,99.26
2320.00,99.28
2319.00,99.30
2318.00,99.31
2317.00,99.31
2316.00,99.30
2315.00,99.30
2314.00,99.30
2313.00,99.30
2312.00,99.30
2311.00,99.30
2310.00,99.30
2309.00,99.29
2308.00,99.28
2307.00,99.27
2306.00,99.27
2305.00,99.26
2304.00,99.26
2303.00,99.26
2302.00,99.25
2301.00,99.24
2300.00,99.23
2299.00,99.23
2298.00,99.22
2297.00,99.21
2296.00,99.20
2295.00,99.20
2294.00,99.19
2293.00,99.17
2292.00,99.16
2291.00,99.14
2290.00,99.13
2289.00,99.11
2288.00,99.10
2287.00,99.09
2286.00,99.09
2285.00,99.08
2284.00,99.08
2283.00,99.09
2282.00,99.10
2281.00,99.11
2280.00,99.12
2279.00,99.13
2278.00,99.13
2277.00,99.13
2276.00,99.13
2275.00,99.13
2274.00,99.13
2273.00,99.13
2272.00,99.14
2271.00,99.15
2270.00,99.16
2269.00,99.16
2268.00,99.16
2267.00,99.16
2266.00,99.17
2265.00,99.16
2264.00,99.16
2263.00,99.16
2262.00,99.17
2261.00,99.16
2260.00,99.16
2259.00,99.15
2258.00,99.15
2257.00,99.16
2256.00,99.17
2255.00,99.19
2254.00,99.20
2253.00,99.20
2252.00,99.19
2251.00,99.19
2250.00,99.19
2249.00,99.20
2248.00,99.20
2247.00,99.21
2246.00,99.20
2245.00,99.19
2244.00,99.18
2243.00,99.17
2242.00,99.16
2241.00,99.16
2240.00,99.15
2239.00,99.16
2238.00,99.16
2237.00,99.15
2236.00,99.15
2235.00,99.15
2234.00,99.15
2233.00,99.15
2232.00,99.15
2231.00,99.15
2230.00,99.15
2229.00,99.14
2228.00,99.13
2227.00,99.13
2226.00,99.13
2225.00,99.12
2224.00,99.12
2223.00,99.12
2222.00,99.10
2221.00,99.08
2220.00,99.06
2219.00,99.06
2218.00,99.05
2217.00,99.06
2216.00,99.07
2215.00,99.09
2214.00,99.09
2213.00,99.08
2212.00,99.06
2211.00,99.05
2210.00,99.03
2209.00,99.02
2208.00,99.02
2207.00,99.03
2206.00,99.03
2205.00,99.02
2204.00,99.01
2203.00,99.00
2202.00,99.00
2201.00,98.99
2200.00,98.98
2199.00,98.98
2198.00,98.97
2197.00,98.94
2196.00,98.93
2195.00,98.92
2194.00,98.92
2193.00,98.92
2192.00,98.91
2191.00,98.92
2190.00,98.91
2189.00,98.90
2188.00,98.89
2187.00,98.88
2186.00,98.88
2185.00,98.87
2184.00,98.87
2183.00,98.89
2182.00,98.92
2181.00,98.95
2180.00,98.96
2179.00,98.96
2178.00,98.95
2177.00,98.94
2176.00,98.96
2175.00,98.99
2174.00,99.00
2173.00,98.98
2172.00,98.95
2171.00,98.91
2170.00,98.86
2169.00,98.81
2168.00,98.78
2167.00,98.77
2166.00,98.76
2165.00,98.74
2164.00,98.72
2163.00,98.70
2162.00,98.68
2161.00,98.69
2160.00,98.79
2159.00,98.99
2158.00,99.20
2157.00,99.33
2156.00,99.38
2155.00,99.37
2154.00,99.33
2153.00,99.29
2152.00,99.26
2151.00,99.24
2150.00,99.22
2149.00,99.20
2148.00,99.19
2147.00,99.19
2146.00,99.20
2145.00,99.21
2144.00,99.21
2143.00,99.23
2142.00,99.24
2141.00,99.24
2140.00,99.25
2139.00,99.25
2138.00,99.26
2137.00,99.27
2136.00,99.29
2135.00,99.32
2134.00,99.35
2133.00,99.35
2132.00,99.34
2131.00,99.34
2130.00,99.33
2129.00,99.31
2128.00,99.29
2127.00,99.27
2126.00,99.25
2125.00,99.23
2124.00,99.22
2123.00,99.21
2122.00,99.20
2121.00,99.18
2120.00,99.17
2119.00,99.17
2118.00,99.16
2117.00,99.14
2116.00,99.13
2115.00,99.12
2114.00,99.11
2113.00,99.10
2112.00,99.09
2111.00,99.09
2110.00,99.10
2109.00,99.10
2108.00,99.11
2107.00,99.12
2106.00,99.13
2105.00,99.14
2104.00,99.14
2103.00,99.14
2102.00,99.13
2101.00,99.12
2100.00,99.11
2099.00,99.12
2098.00,99.13
2097.00,99.14
2096.00,99.16
2095.00,99.19
2094.00,99.22
2093.00,99.22
2092.00,99.20
2091.00,99.18
2090.00,99.16
2089.00,99.14
2088.00,99.12
2087.00,99.12
2086.00,99.12
2085.00,99.12
2084.00,99.11
2083.00,99.10
2082.00,99.10
2081.00,99.08
2080.00,99.07
2079.00,99.07
2078.00,99.06
2077.00,99.05
2076.00,99.05
2075.00,99.07
2074.00,99.08
2073.00,99.08
2072.00,99.08
2071.00,99.08
2070.00,99.08
2069.00,99.07
2068.00,99.07
2067.00,99.09
2066.00,99.09
2065.00,99.09
2064.00,99.10
2063.00,99.11
2062.00,99.11
2061.00,99.11
2060.00,99.11
2059.00,99.12
2058.00,99.11
2057.00,99.10
2056.00,99.09
2055.00,99.09
2054.00,99.08
2053.00,99.04
2052.00,98.98
2051.00,98.94
2050.00,98.92
2049.00,98.93
2048.00,98.97
2047.00,99.01
2046.00,99.04
2045.00,99.05
2044.00,99.05
2043.00,99.05
2042.00,99.05
2041.00,99.03
2040.00,99.01
2039.00,99.01
2038.00,99.01
2037.00,99.01
2036.00,99.01
2035.00,99.04
2034.00,99.06
2033.00,99.07
2032.00,99.09
2031.00,99.12
2030.00,99.14
2029.00,99.14
2028.00,99.15
2027.00,99.17
2026.00,99.19
2025.00,99.19
2024.00,99.19
2023.00,99.19
2022.00,99.18
2021.00,99.16
2020.00,99.15
2019.00,99.16
2018.00,99.17
2017.00,99.16
2016.00,99.15
2015.00,99.16
2014.00,99.16
2013.00,99.15
2012.00,99.14
2011.00,99.14
2010.00,99.16
2009.00,99.17
2008.00,99.20
2007.00,99.25
2006.00,99.30
2005.00,99.31
2004.00,99.30
2003.00,99.30
2002.00,99.29
2001.00,99.26
2000.00,99.25
1999.00,99.24
1998.00,99.23
1997.00,99.20
1996.00,99.18
1995.00,99.17
1994.00,99.17
1993.00,99.17
1992.00,99.16
1991.00,99.17
1990.00,99.17
1989.00,99.15
1988.00,99.14
1987.00,99.14
1986.00,99.13
1985.00,99.10
1984.00,99.07
1983.00,99.06
1982.00,99.03
1981.00,98.98
1980.00,98.96
1979.00,98.99
1978.00,99.06
1977.00,99.14
1976.00,99.21
1975.00,99.28
1974.00,99.31
1973.00,99.31
1972.00,99.31
1971.00,99.32
1970.00,99.33
1969.00,99.31
1968.00,99.30
1967.00,99.30
1966.00,99.31
1965.00,99.30
1964.00,99.30
1963.00,99.31
1962.00,99.32
1961.00,99.34
1960.00,99.36
1959.00,99.40
1958.00,99.42
1957.00,99.43
1956.00,99.43
1955.00,99.43
1954.00,99.43
1953.00,99.42
1952.00,99.40
1951.00,99.39
1950.00,99.39
1949.00,99.38
1948.00,99.38
1947.00,99.39
1946.00,99.39
1945.00,99.38
1944.00,99.37
1943.00,99.38
1942.00,99.40
1941.00,99.41
1940.00,99.41
1939.00,99.41
1938.00,99.41
1937.00,99.40
1936.00,99.41
1935.00,99.41
1934.00,99.42
1933.00,99.41
1932.00,99.41
1931.00,99.42
1930.00,99.43
1929.00,99.43
1928.00,99.42
1927.00,99.43
1926.00,99.43
1925.00,99.42
1924.00,99.41
1923.00,99.41
1922.00,99.41
1921.00,99.41
1920.00,99.39
1919.00,99.38
1918.00,99.38
1917.00,99.38
1916.00,99.38
1915.00,99.39
1914.00,99.39
1913.00,99.37
1912.00,99.36
1911.00,99.37
1910.00,99.37
1909.00,99.36
1908.00,99.37
1907.00,99.38
1906.00,99.39
1905.00,99.38
1904.00,99.38
1903.00,99.38
1902.00,99.37
1901.00,99.35
1900.00,99.34
1899.00,99.35
1898.00,99.35
1897.00,99.34
1896.00,99.34
1895.00,99.35
1894.00,99.36
1893.00,99.36
1892.00,99.35
1891.00,99.34
1890.00,99.34
1889.00,99.35
1888.00,99.36
1887.00,99.38
1886.00,99.38
1885.00,99.38
1884.00,99.37
1883.00,99.37
1882.00,99.37
1881.00,99.36
1880.00,99.36
1879.00,99.36
1878.00,99.37
1877.00,99.37
1876.00,99.37
1875.00,99.37
1874.00,99.37
1873.00,99.36
1872.00,99.34
1871.00,99.33
1870.00,99.33
1869.00,99.34
1868.00,99.35
1867.00,99.37
1866.00,99.38
1865.00,99.37
1864.00,99.37
1863.00,99.37
1862.00,99.37
1861.00,99.37
1860.00,99.38
1859.00,99.38
1858.00,99.39
1857.00,99.37
1856.00,99.37
1855.00,99.37
1854.00,99.36
1853.00,99.35
1852.00,99.34
1851.00,99.34
1850.00,99.33
1849.00,99.32
1848.00,99.30
1847.00,99.30
1846.00,99.30
1845.00,99.30
1844.00,99.32
1843.00,99.34
1842.00,99.35
1841.00,99.33
1840.00,99.31
1839.00,99.31
1838.00,99.31
1837.00,99.31
1836.00,99.30
1835.00,99.31
1834.00,99.31
1833.00,99.30
1832.00,99.29
1831.00,99.28
1830.00,99.28
1829.00,99.28
1828.00,99.28
1827.00,99.27
1826.00,99.25
1825.00,99.24
1824.00,99.24
1823.00,99.26
1822.00,99.26
1821.00,99.26
1820.00,99.26
1819.00,99.27
1818.00,99.29
1817.00,99.29
1816.00,99.29
1815.00,99.28
1814.00,99.27
1813.00,99.24
1812.00,99.22
1811.00,99.22
1810.00,99.22
1809.00,99.21
1808.00,99.20
1807.00,99.20
1806.00,99.20
1805.00,99.18
1804.00,99.15
1803.00,99.12
1802.00,99.12
1801.00,99.12
1800.00,99.13
1799.00,99.14
1798.00,99.14
1797.00,99.12
1796.00,99.11
1795.00,99.10
1794.00,99.10
1793.00,99.09
1792.00,99.08
1791.00,99.09
1790.00,99.08
1789.00,99.07
1788.00,99.04
1787.00,99.02
1786.00,99.01
1785.00,99.00
1784.00,98.99
1783.00,98.98
1782.00,98.98
1781.00,98.96
1780.00,98.95
1779.00,98.95
1778.00,98.95
1777.00,98.93
1776.00,98.92
1775.00,98.92
1774.00,98.93
1773.00,98.93
1772.00,98.92
1771.00,98.90
1770.00,98.87
1769.00,98.81
1768.00,98.77
1767.00,98.76
1766.00,98.75
1765.00,98.72
1764.00,98.68
1763.00,98.65
1762.00,98.62
1761.00,98.60
1760.00,98.56
1759.00,98.52
1758.00,98.47
1757.00,98.43
1756.00,98.41
1755.00,98.40
1754.00,98.38
1753.00,98.33
1752.00,98.28
1751.00,98.24
1750.00,98.21
1749.00,98.17
1748.00,98.12
1747.00,98.09
1746.00,98.06
1745.00,98.01
1744.00,97.97
1743.00,97.95
1742.00,97.95
1741.00,97.93
1740.00,97.91
1739.00,97.90
1738.00,97.89
1737.00,97.88
1736.00,97.85
1735.00,97.84
1734.00,97.85
1733.00,97.84
1732.00,97.79
1731.00,97.74
1730.00,97.70
1729.00,97.68
1728.00,97.66
1727.00,97.65
1726.00,97.63
1725.00,97.60
1724.00,97.57
1723.00,97.56
1722.00,97.55
1721.00,97.54
1720.00,97.52
1719.00,97.51
1718.00,97.52
1717.00,97.52
1716.00,97.47
1715.00,97.42
1714.00,97.39
1713.00,97.34
1712.00,97.30
1711.00,97.26
1710.00,97.23
1709.00,97.19
1708.00,97.13
1707.00,97.08
1706.00,97.04
1705.00,96.99
1704.00,96.95
1703.00,96.92
1702.00,96.89
1701.00,96.83
1700.00,96.74
1699.00,96.69
1698.00,96.63
1697.00,96.51
1696.00,96.33
1695.00,96.18
1694.00,96.03
1693.00,95.85
1692.00,95.64
1691.00,95.41
1690.00,95.17
1689.00,94.91
1688.00,94.67
1687.00,94.45
1686.00,94.17
1685.00,93.63
1684.00,92.90
1683.00,92.28
1682.00,91.76
1681.00,91.20
1680.00,90.58
1679.00,89.99
1678.00,89.43
1677.00,88.77
1676.00,87.89
1675.00,86.92
1674.00,86.05
1673.00,85.24
1672.00,84.31
1671.00,83.12
1670.00,81.62
1669.00,79.94
1668.00,78.38
1667.00,77.07
1666.00,75.91
1665.00,74.67
1664.00,73.19
1663.00,71.54
1662.00,69.99
1661.00,68.63
1660.00,67.36
1659.00,66.16
1658.00,65.05
1657.00,64.04
1656.00,63.06
1655.00,61.84
1654.00,59.78
1653.00,56.97
1652.00,54.79
1651.00,53.45
1650.00,52.34
1649.00,50.86
1648.00,48.53
1647.00,45.42
1646.00,42.36
1645.00,39.78
1644.00,37.43
1643.00,35.07
1642.00,32.63
1641.00,30.16
1640.00,27.82
1639.00,25.80
1638.00,24.08
1637.00,22.50
1636.00,21.15
1635.00,20.49
1634.00,20.61
1633.00,21.21
1632.00,22.08
1631.00,23.20
1630.00,24.58
1629.00,26.17
1628.00,27.85
1627.00,29.46
1626.00,30.99
1625.00,32.61
1624.00,34.49
1623.00,36.60
1622.00,38.66
1621.00,40.49
1620.00,42.22
1619.00,44.05
1618.00,46.24
1617.00,48.80
1616.00,51.28
1615.00,53.29
1614.00,54.90
1613.00,56.40
1612.00,57.97
1611.00,59.58
1610.00,61.16
1609.00,62.73
1608.00,64.32
1607.00,65.86
1606.00,67.27
1605.00,68.60
1604.00,69.92
1603.00,71.17
1602.00,72.26
1601.00,73.23
1600.00,74.14
1599.00,74.94
1598.00,75.59
1597.00,76.15
1596.00,76.68
1595.00,77.13
1594.00,77.43
1593.00,77.64
1592.00,77.82
1591.00,77.91
1590.00,77.86
1589.00,77.71
1588.00,77.54
1587.00,77.27
1586.00,76.86
1585.00,76.33
1584.00,75.75
1583.00,75.07
1582.00,74.23
1581.00,73.30
1580.00,72.42
1579.00,71.51
1578.00,70.33
1577.00,68.68
1576.00,66.76
1575.00,65.03
1574.00,63.62
1573.00,62.42
1572.00,61.22
1571.00,59.77
1570.00,57.99
1569.00,56.25
1568.00,54.89
1567.00,53.78
1566.00,52.66
1565.00,51.47
1564.00,50.40
1563.00,49.57
1562.00,48.94
1561.00,48.23
1560.00,47.03
1559.00,45.23
1558.00,43.81
1557.00,43.02
1556.00,42.34
1555.00,41.51
1554.00,40.55
1553.00,39.58
1552.00,38.61
1551.00,37.53
1550.00,36.31
1549.00,35.13
1548.00,34.15
1547.00,33.31
1546.00,32.48
1545.00,31.65
1544.00,30.94
1543.00,30.44
1542.00,30.15
1541.00,30.03
1540.00,30.16
1539.00,30.56
1538.00,31.10
1537.00,31.71
1536.00,32.42
1535.00,33.37
1534.00,34.71
1533.00,36.25
1532.00,37.67
1531.00,38.96
1530.00,40.26
1529.00,41.66
1528.00,43.18
1527.00,44.79
1526.00,46.42
1525.00,47.91
1524.00,49.25
1523.00,50.68
1522.00,52.37
1521.00,54.09
1520.00,55.47
1519.00,56.62
1518.00,57.85
1517.00,59.22
1516.00,60.54
1515.00,61.71
1514.00,62.79
1513.00,63.83
1512.00,64.82
1511.00,65.77
1510.00,66.67
1509.00,67.55
1508.00,68.54
1507.00,69.78
1506.00,70.98
1505.00,71.81
1504.00,72.38
1503.00,72.91
1502.00,73.51
1501.00,74.13
1500.00,74.72
1499.00,75.30
1498.00,75.94
1497.00,76.56
1496.00,77.08
1495.00,77.53
1494.00,77.94
1493.00,78.28
1492.00,78.56
1491.00,78.85
1490.00,79.18
1489.00,79.41
1488.00,79.50
1487.00,79.52
1486.00,79.46
1485.00,79.26
1484.00,78.86
1483.00,78.30
1482.00,77.57
1481.00,76.69
1480.00,75.80
1479.00,74.99
1478.00,74.27
1477.00,73.60
1476.00,73.04
1475.00,72.68
1474.00,72.46
1473.00,72.22
1472.00,71.84
1471.00,71.34
1470.00,70.71
1469.00,69.88
1468.00,68.84
1467.00,67.58
1466.00,66.09
1465.00,64.49
1464.00,63.20
1463.00,62.51
1462.00,62.37
1461.00,62.61
1460.00,63.15
1459.00,63.96
1458.00,64.98
1457.00,65.96
1456.00,66.63
1455.00,67.08
1454.00,67.46
1453.00,67.82
1452.00,68.18
1451.00,68.52
1450.00,68.78
1449.00,68.90
1448.00,68.86
1447.00,68.69
1446.00,68.44
1445.00,68.09
1444.00,67.66
1443.00,67.20
1442.00,66.75
1441.00,66.35
1440.00,66.00
1439.00,65.73
1438.00,65.50
1437.00,65.30
1436.00,65.21
1435.00,65.32
1434.00,65.59
1433.00,65.96
1432.00,66.45
1431.00,67.06
1430.00,67.76
1429.00,68.43
1428.00,68.99
1427.00,69.43
1426.00,69.75
1425.00,69.92
1424.00,69.96
1423.00,69.91
1422.00,69.83
1421.00,69.72
1420.00,69.58
1419.00,69.53
1418.00,69.68
1417.00,70.04
1416.00,70.57
1415.00,71.25
1414.00,72.06
1413.00,72.97
1412.00,73.92
1411.00,74.88
1410.00,75.80
1409.00,76.63
1408.00,77.36
1407.00,78.00
1406.00,78.57
1405.00,79.10
1404.00,79.54
1403.00,79.88
1402.00,80.14
1401.00,80.35
1400.00,80.51
1399.00,80.61
1398.00,80.67
1397.00,80.68
1396.00,80.64
1395.00,80.51
1394.00,80.33
1393.00,80.14
1392.00,79.92
1391.00,79.63
1390.00,79.30
1389.00,78.90
1388.00,78.40
1387.00,77.82
1386.00,77.25
1385.00,76.70
1384.00,76.12
1383.00,75.50
1382.00,74.85
1381.00,74.21
1380.00,73.57
1379.00,72.95
1378.00,72.39
1377.00,71.91
1376.00,71.45
1375.00,70.99
1374.00,70.57
1373.00,70.24
1372.00,69.98
1371.00,69.78
1370.00,69.63
1369.00,69.55
1368.00,69.53
1367.00,69.59
1366.00,69.73
1365.00,69.91
1364.00,70.13
1363.00,70.38
1362.00,70.68
1361.00,71.00
1360.00,71.31
1359.00,71.64
1358.00,71.99
1357.00,72.36
1356.00,72.74
1355.00,73.13
1354.00,73.54
1353.00,73.95
1352.00,74.33
1351.00,74.70
1350.00,75.05
1349.00,75.40
1348.00,75.72
1347.00,76.02
1346.00,76.31
1345.00,76.60
1344.00,76.86
1343.00,77.10
1342.00,77.31
1341.00,77.49
1340.00,77.62
1339.00,77.72
1338.00,77.80
1337.00,77.88
1336.00,77.96
1335.00,78.06
1334.00,78.19
1333.00,78.34
1332.00,78.53
1331.00,78.73
1330.00,78.95
1329.00,79.15
1328.00,79.31
1327.00,79.42
1326.00,79.46
1325.00,79.45
1324.00,79.38
1323.00,79.26
1322.00,79.13
1321.00,78.99
1320.00,78.83
1319.00,78.65
1318.00,78.44
1317.00,78.21
1316.00,77.93
1315.00,77.61
1314.00,77.27
1313.00,76.92
1312.00,76.61
1311.00,76.34
1310.00,76.14
1309.00,75.99
1308.00,75.87
1307.00,75.77
1306.00,75.68
1305.00,75.58
1304.00,75.46
1303.00,75.33
1302.00,75.23
1301.00,75.17
1300.00,75.17
1299.00,75.23
1298.00,75.35
1297.00,75.52
1296.00,75.70
1295.00,75.89
1294.00,76.07
1293.00,76.23
1292.00,76.34
1291.00,76.38
1290.00,76.33
1289.00,76.17
1288.00,75.88
1287.00,75.49
1286.00,75.01
1285.00,74.47
1284.00,73.88
1283.00,73.28
1282.00,72.71
1281.00,72.19
1280.00,71.74
1279.00,71.40
1278.00,71.18
1277.00,71.05
1276.00,70.96
1275.00,70.89
1274.00,70.79
1273.00,70.60
1272.00,70.30
1271.00,69.90
1270.00,69.42
1269.00,68.89
1268.00,68.32
1267.00,67.78
1266.00,67.31
1265.00,66.96
1264.00,66.74
1263.00,66.71
1262.00,66.86
1261.00,67.20
1260.00,67.67
1259.00,68.27
1258.00,68.95
1257.00,69.70
1256.00,70.47
1255.00,71.24
1254.00,72.00
1253.00,72.72
1252.00,73.37
1251.00,73.95
1250.00,74.44
1249.00,74.85
1248.00,75.17
1247.00,75.39
1246.00,75.53
1245.00,75.58
1244.00,75.53
1243.00,75.39
1242.00,75.17
1241.00,74.85
1240.00,74.44
1239.00,73.94
1238.00,73.39
1237.00,72.87
1236.00,72.48
1235.00,72.36
1234.00,72.60
1233.00,73.20
1232.00,74.12
1231.00,75.24
1230.00,76.49
1229.00,77.76
1228.00,78.97
1227.00,80.07
1226.00,81.01
1225.00,81.77
1224.00,82.31
1223.00,82.60
1222.00,82.62
1221.00,82.38
1220.00,81.90
1219.00,81.25
1218.00,80.55
1217.00,79.87
1216.00,79.27
1215.00,78.78
1214.00,78.42
1213.00,78.20
1212.00,78.08
1211.00,78.04
1210.00,78.02
1209.00,77.97
1208.00,77.81
1207.00,77.53
1206.00,77.15
1205.00,76.73
1204.00,76.38
1203.00,76.22
1202.00,76.35
1201.00,76.76
1200.00,77.40
1199.00,78.16
1198.00,78.96
1197.00,79.73
1196.00,80.42
1195.00,81.04
1194.00,81.62
1193.00,82.17
1192.00,82.70
1191.00,83.20
1190.00,83.68
1189.00,84.12
1188.00,84.49
1187.00,84.78
1186.00,84.97
1185.00,85.05
1184.00,84.98
1183.00,84.74
1182.00,84.31
1181.00,83.69
1180.00,82.85
1179.00,81.78
1178.00,80.50
1177.00,79.04
1176.00,77.45
1175.00,75.78
1174.00,74.11
1173.00,72.54
1172.00,71.17
1171.00,70.11
1170.00,69.49
1169.00,69.38
1168.00,69.81
1167.00,70.73
1166.00,72.04
1165.00,73.56
1164.00,75.15
1163.00,76.71
1162.00,78.18
1161.00,79.51
1160.00,80.71
1159.00,81.78
1158.00,82.74
1157.00,83.61
1156.00,84.39
1155.00,85.09
1154.00,85.73
1153.00,86.32
1152.00,86.86
1151.00,87.36
1150.00,87.82
1149.00,88.26
1148.00,88.67
1147.00,89.05
1146.00,89.40
1145.00,89.73
1144.00,90.04
1143.00,90.30
1142.00,90.54
1141.00,90.75
1140.00,90.93
1139.00,91.07
1138.00,91.18
1137.00,91.26
1136.00,91.31
1135.00,91.31
1134.00,91.26
1133.00,91.14
1132.00,90.93
1131.00,90.61
1130.00,90.16
1129.00,89.60
1128.00,88.91
1127.00,88.09
1126.00,87.20
1125.00,86.29
1124.00,85.43
1123.00,84.69
1122.00,84.12
1121.00,83.76
1120.00,83.58
1119.00,83.57
1118.00,83.68
1117.00,83.88
1116.00,84.13
1115.00,84.43
1114.00,84.76
1113.00,85.11
1112.00,85.47
1111.00,85.84
1110.00,86.22
1109.00,86.61
1108.00,87.00
1107.00,87.38
1106.00,87.76
1105.00,88.13
1104.00,88.47
1103.00,88.77
1102.00,89.04
1101.00,89.27
1100.00,89.45
1099.00,89.59
1098.00,89.69
1097.00,89.76
1096.00,89.81
1095.00,89.84
1094.00,89.84
1093.00,89.84
1092.00,89.81
1091.00,89.74
1090.00,89.65
1089.00,89.53
1088.00,89.38
1087.00,89.21
1086.00,89.02
1085.00,88.84
1084.00,88.64
1083.00,88.44
1082.00,88.24
1081.00,88.06
1080.00,87.90
1079.00,87.77
1078.00,87.67
1077.00,87.60
1076.00,87.54
1075.00,87.49
1074.00,87.46
1073.00,87.45
1072.00,87.48
1071.00,87.54
1070.00,87.63
1069.00,87.77
1068.00,87.94
1067.00,88.13
1066.00,88.34
1065.00,88.58
1064.00,88.83
1063.00,89.07
1062.00,89.31
1061.00,89.54
1060.00,89.76
1059.00,89.95
1058.00,90.13
1057.00,90.31
1056.00,90.49
1055.00,90.66
1054.00,90.83
1053.00,91.01
1052.00,91.19
1051.00,91.38
1050.00,91.56
1049.00,91.74
1048.00,91.91
1047.00,92.05
1046.00,92.17
1045.00,92.28
1044.00,92.37
1043.00,92.43
1042.00,92.47
1041.00,92.50
1040.00,92.50
1039.00,92.49
1038.00,92.45
1037.00,92.40
1036.00,92.33
1035.00,92.23
1034.00,92.12
1033.00,92.01
1032.00,91.91
1031.00,91.82
1030.00,91.76
1029.00,91.73
1028.00,91.74
1027.00,91.77
1026.00,91.83
1025.00,91.89
1024.00,91.95
1023.00,92.01
1022.00,92.06
1021.00,92.11
1020.00,92.15
1019.00,92.17
1018.00,92.18
1017.00,92.18
1016.00,92.18
1015.00,92.18
1014.00,92.18
1013.00,92.17
1012.00,92.16
1011.00,92.12
1010.00,92.07
1009.00,92.00
1008.00,91.91
1007.00,91.80
1006.00,91.66
1005.00,91.52
1004.00,91.36
1003.00,91.21
1002.00,91.06
1001.00,90.93
1000.00,90.83
999.00,90.73
998.00,90.66
997.00,90.60
996.00,90.55
995.00,90.48
994.00,90.39
993.00,90.28
992.00,90.13
991.00,89.95
990.00,89.74
989.00,89.53
988.00,89.30
987.00,89.08
986.00,88.85
985.00,88.62
984.00,88.36
983.00,88.06
982.00,87.72
981.00,87.32
980.00,86.86
979.00,86.35
978.00,85.84
977.00,85.38
976.00,85.03
975.00,84.87
974.00,84.90
973.00,85.12
972.00,85.48
971.00,85.94
970.00,86.44
969.00,86.93
968.00,87.38
967.00,87.76
966.00,88.08
965.00,88.34
964.00,88.54
963.00,88.71
962.00,88.86
961.00,89.03
960.00,89.23
959.00,89.46
958.00,89.74
957.00,90.04
956.00,90.34
955.00,90.61
954.00,90.85
953.00,91.05
952.00,91.23
951.00,91.40
950.00,91.56
949.00,91.73
948.00,91.90
947.00,92.06
946.00,92.21
945.00,92.35
944.00,92.48
943.00,92.57
942.00,92.65
941.00,92.69
940.00,92.71
939.00,92.70
938.00,92.66
937.00,92.59
936.00,92.50
935.00,92.39
934.00,92.27
933.00,92.15
932.00,92.05
931.00,91.97
930.00,91.93
929.00,91.94
928.00,92.00
927.00,92.08
926.00,92.18
925.00,92.28
924.00,92.37
923.00,92.42
922.00,92.46
921.00,92.48
920.00,92.50
919.00,92.51
918.00,92.51
917.00,92.52
916.00,92.53
915.00,92.54
914.00,92.55
913.00,92.58
912.00,92.63
911.00,92.69
910.00,92.76
909.00,92.83
908.00,92.91
907.00,92.99
906.00,93.07
905.00,93.16
904.00,93.25
903.00,93.31
902.00,93.36
901.00,93.40
900.00,93.44
899.00,93.48
898.00,93.50
897.00,93.51
896.00,93.52
895.00,93.52
894.00,93.52
893.00,93.53
892.00,93.55
891.00,93.56
890.00,93.56
889.00,93.57
888.00,93.58
887.00,93.59
886.00,93.61
885.00,93.63
884.00,93.66
883.00,93.69
882.00,93.73
881.00,93.76
880.00,93.79
879.00,93.81
878.00,93.81
877.00,93.81
876.00,93.81
875.00,93.82
874.00,93.82
873.00,93.83
872.00,93.84
871.00,93.84
870.00,93.84
869.00,93.84
868.00,93.84
867.00,93.84
866.00,93.84
865.00,93.84
864.00,93.83
863.00,93.82
862.00,93.80
861.00,93.79
860.00,93.77
859.00,93.74
858.00,93.71
857.00,93.67
856.00,93.63
855.00,93.57
854.00,93.51
853.00,93.45
852.00,93.39
851.00,93.32
850.00,93.24
849.00,93.16
848.00,93.08
847.00,92.99
846.00,92.89
845.00,92.78
844.00,92.66
843.00,92.54
842.00,92.41
841.00,92.28
840.00,92.15
839.00,91.99
838.00,91.82
837.00,91.65
836.00,91.49
835.00,91.34
834.00,91.24
833.00,91.17
832.00,91.15
831.00,91.15
830.00,91.17
829.00,91.18
828.00,91.19
827.00,91.17
826.00,91.14
825.00,91.10
824.00,91.06
823.00,90.99
822.00,90.91
821.00,90.83
820.00,90.75
819.00,90.65
818.00,90.55
817.00,90.44
816.00,90.34
815.00,90.23
814.00,90.11
813.00,89.97
812.00,89.82
811.00,89.67
810.00,89.51
809.00,89.36
808.00,89.20
807.00,89.03
806.00,88.86
805.00,88.70
804.00,88.52
803.00,88.34
802.00,88.16
801.00,87.97
800.00,87.77
799.00,87.57
798.00,87.36
797.00,87.16
796.00,86.94
795.00,86.70
794.00,86.46
793.00,86.22
792.00,85.97
791.00,85.74
790.00,85.49
789.00,85.24
788.00,84.97
787.00,84.70
786.00,84.43
785.00,84.17
784.00,83.90
783.00,83.62
782.00,83.36
781.00,83.10
780.00,82.85
779.00,82.62
778.00,82.42
777.00,82.25
776.00,82.10
775.00,81.98
774.00,81.87
773.00,81.79
772.00,81.69
771.00,81.59
770.00,81.49
769.00,81.36
768.00,81.21
767.00,81.03
766.00,80.85
765.00,80.65
764.00,80.42
763.00,80.16
762.00,79.88
761.00,79.57
760.00,79.21
759.00,78.82
758.00,78.41
757.00,77.98
756.00,77.53
755.00,77.07
754.00,76.60
753.00,76.13
752.00,75.65
751.00,75.17
750.00,74.72
749.00,74.28
748.00,73.86
747.00,73.45
746.00,73.09
745.00,72.74
744.00,72.40
743.00,72.08
742.00,71.77
741.00,71.45
740.00,71.09
739.00,70.70
738.00,70.25
737.00,69.69
736.00,69.00
735.00,68.17
734.00,67.23
733.00,66.20
732.00,65.14
731.00,64.19
730.00,63.45
729.00,62.97
728.00,62.75
727.00,62.75
726.00,62.90
725.00,63.10
724.00,63.24
723.00,63.29
722.00,63.24
721.00,63.08
720.00,62.83
719.00,62.53
718.00,62.23
717.00,61.92
716.00,61.58
715.00,61.25
714.00,60.95
713.00,60.67
712.00,60.41
711.00,60.17
710.00,59.98
709.00,59.81
708.00,59.66
707.00,59.54
706.00,59.45
705.00,59.36
704.00,59.24
703.00,59.11
702.00,59.00
701.00,58.88
700.00,58.74
699.00,58.59
698.00,58.46
697.00,58.34
696.00,58.22
695.00,58.12
694.00,58.07
693.00,58.03
692.00,58.00
691.00,58.00
690.00,58.06
689.00,58.14
688.00,58.24
687.00,58.38
686.00,58.57
685.00,58.77
684.00,58.96
683.00,59.17
682.00,59.43
681.00,59.71
680.00,60.00
679.00,60.30
678.00,60.63
677.00,60.96
676.00,61.28
675.00,61.62
674.00,61.98
673.00,62.34
672.00,62.69
671.00,63.03
670.00,63.43
669.00,63.89
668.00,64.33
667.00,64.64
666.00,64.88
665.00,65.12
664.00,65.38
663.00,65.67
662.00,65.99
661.00,66.32
660.00,66.63
659.00,66.94
658.00,67.26
657.00,67.55
656.00,67.80
655.00,68.03
654.00,68.25
653.00,68.43
652.00,68.56
651.00,68.68
650.00,68.81
