Created as New Dataset,PC (polycarbonate) GF
cm-1,%T
4000.00,99.81
3999.00,99.81
3998.00,99.81
3997.00,99.81
3996.00,99.81
3995.00,99.81
3994.00,99.81
3993.00,99.81
3992.00,99.81
3991.00,99.81
3990.00,99.80
3989.00,99.80
3988.00,99.80
3987.00,99.80
3986.00,99.80
3985.00,99.80
3984.00,99.80
3983.00,99.81
3982.00,99.81
3981.00,99.81
3980.00,99.81
3979.00,99.81
3978.00,99.81
3977.00,99.81
3976.00,99.82
3975.00,99.82
3974.00,99.82
3973.00,99.82
3972.00,99.82
3971.00,99.82
3970.00,99.83
3969.00,99.83
3968.00,99.83
3967.00,99.83
3966.00,99.83
3965.00,99.83
3964.00,99.83
3963.00,99.83
3962.00,99.83
3961.00,99.83
3960.00,99.83
3959.00,99.83
3958.00,99.82
3957.00,99.82
3956.00,99.82
3955.00,99.82
3954.00,99.82
3953.00,99.82
3952.00,99.82
3951.00,99.82
3950.00,99.82
3949.00,99.82
3948.00,99.81
3947.00,99.81
3946.00,99.81
3945.00,99.81
3944.00,99.82
3943.00,99.82
3942.00,99.82
3941.00,99.82
3940.00,99.82
3939.00,99.82
3938.00,99.81
3937.00,99.81
3936.00,99.81
3935.00,99.81
3934.00,99.81
3933.00,99.81
3932.00,99.81
3931.00,99.81
3930.00,99.81
3929.00,99.81
3928.00,99.81
3927.00,99.81
3926.00,99.81
3925.00,99.81
3924.00,99.81
3923.00,99.81
3922.00,99.81
3921.00,99.80
3920.00,99.80
3919.00,99.80
3918.00,99.80
3917.00,99.80
3916.00,99.80
3915.00,99.80
3914.00,99.80
3913.00,99.80
3912.00,99.80
3911.00,99.80
3910.00,99.80
3909.00,99.80
3908.00,99.80
3907.00,99.80
3906.00,99.79
3905.00,99.79
3904.00,99.78
3903.00,99.78
3902.00,99.77
3901.00,99.77
3900.00,99.77
3899.00,99.78
3898.00,99.78
3897.00,99.78
3896.00,99.78
3895.00,99.77
3894.00,99.77
3893.00,99.77
3892.00,99.77
3891.00,99.77
3890.00,99.77
3889.00,99.76
3888.00,99.76
3887.00,99.76
3886.00,99.76
3885.00,99.76
3884.00,99.76
3883.00,99.75
3882.00,99.75
3881.00,99.76
3880.00,99.76
3879.00,99.77
3878.00,99.77
3877.00,99.77
3876.00,99.77
3875.00,99.77
3874.00,99.78
3873.00,99.78
3872.00,99.78
3871.00,99.78
3870.00,99.78
3869.00,99.79
3868.00,99.79
3867.00,99.79
3866.00,99.80
3865.00,99.80
3864.00,99.80
3863.00,99.80
3862.00,99.80
3861.00,99.80
3860.00,99.81
3859.00,99.81
3858.00,99.81
3857.00,99.80
3856.00,99.80
3855.00,99.80
3854.00,99.81
3853.00,99.81
3852.00,99.81
3851.00,99.81
3850.00,99.82
3849.00,99.82
3848.00,99.83
3847.00,99.83
3846.00,99.83
3845.00,99.83
3844.00,99.84
3843.00,99.84
3842.00,99.84
3841.00,99.84
3840.00,99.84
3839.00,99.83
3838.00,99.83
3837.00,99.83
3836.00,99.83
3835.00,99.82
3834.00,99.83
3833.00,99.83
3832.00,99.83
3831.00,99.83
3830.00,99.83
3829.00,99.82
3828.00,99.83
3827.00,99.83
3826.00,99.84
3825.00,99.84
3824.00,99.83
3823.00,99.83
3822.00,99.83
3821.00,99.83
3820.00,99.83
3819.00,99.82
3818.00,99.82
3817.00,99.82
3816.00,99.82
3815.00,99.82
3814.00,99.82
3813.00,99.82
3812.00,99.82
3811.00,99.82
3810.00,99.82
3809.00,99.82
3808.00,99.83
3807.00,99.83
3806.00,99.83
3805.00,99.82
3804.00,99.82
3803.00,99.82
3802.00,99.82
3801.00,99.83
3800.00,99.82
3799.00,99.82
3798.00,99.82
3797.00,99.82
3796.00,99.83
3795.00,99.83
3794.00,99.83
3793.00,99.83
3792.00,99.83
3791.00,99.83
3790.00,99.83
3789.00,99.84
3788.00,99.83
3787.00,99.83
3786.00,99.83
3785.00,99.83
3784.00,99.83
3783.00,99.83
3782.00,99.83
3781.00,99.83
3780.00,99.83
3779.00,99.83
3778.00,99.83
3777.00,99.83
3776.00,99.82
3775.00,99.82
3774.00,99.82
3773.00,99.81
3772.00,99.81
3771.00,99.81
3770.00,99.81
3769.00,99.81
3768.00,99.81
3767.00,99.81
3766.00,99.81
3765.00,99.81
3764.00,99.81
3763.00,99.80
3762.00,99.79
3761.00,99.79
3760.00,99.79
3759.00,99.80
3758.00,99.80
3757.00,99.79
3756.00,99.79
3755.00,99.79
3754.00,99.79
3753.00,99.79
3752.00,99.78
3751.00,99.77
3750.00,99.76
3749.00,99.75
3748.00,99.74
3747.00,99.74
3746.00,99.74
3745.00,99.75
3744.00,99.75
3743.00,99.76
3742.00,99.76
3741.00,99.76
3740.00,99.77
3739.00,99.77
3738.00,99.77
3737.00,99.77
3736.00,99.77
3735.00,99.77
3734.00,99.77
3733.00,99.77
3732.00,99.77
3731.00,99.77
3730.00,99.77
3729.00,99.77
3728.00,99.77
3727.00,99.78
3726.00,99.78
3725.00,99.78
3724.00,99.78
3723.00,99.78
3722.00,99.78
3721.00,99.79
3720.00,99.79
3719.00,99.79
3718.00,99.79
3717.00,99.79
3716.00,99.78
3715.00,99.77
3714.00,99.77
3713.00,99.77
3712.00,99.77
3711.00,99.76
3710.00,99.76
3709.00,99.76
3708.00,99.76
3707.00,99.76
3706.00,99.75
3705.00,99.75
3704.00,99.74
3703.00,99.74
3702.00,99.73
3701.00,99.73
3700.00,99.72
3699.00,99.71
3698.00,99.71
3697.00,99.70
3696.00,99.70
3695.00,99.70
3694.00,99.69
3693.00,99.69
3692.00,99.68
3691.00,99.67
3690.00,99.65
3689.00,99.64
3688.00,99.63
3687.00,99.61
3686.00,99.60
3685.00,99.58
3684.00,99.57
3683.00,99.56
3682.00,99.56
3681.00,99.55
3680.00,99.54
3679.00,99.53
3678.00,99.52
3677.00,99.51
3676.00,99.50
3675.00,99.50
3674.00,99.49
3673.00,99.48
3672.00,99.48
3671.00,99.49
3670.00,99.50
3669.00,99.51
3668.00,99.52
3667.00,99.52
3666.00,99.53
3665.00,99.54
3664.00,99.55
3663.00,99.56
3662.00,99.57
3661.00,99.58
3660.00,99.59
3659.00,99.59
3658.00,99.59
3657.00,99.60
3656.00,99.61
3655.00,99.61
3654.00,99.62
3653.00,99.63
3652.00,99.63
3651.00,99.64
3650.00,99.64
3649.00,99.64
3648.00,99.65
3647.00,99.65
3646.00,99.66
3645.00,99.67
3644.00,99.67
3643.00,99.68
3642.00,99.69
3641.00,99.70
3640.00,99.70
3639.00,99.71
3638.00,99.71
3637.00,99.71
3636.00,99.71
3635.00,99.71
3634.00,99.71
3633.00,99.70
3632.00,99.70
3631.00,99.70
3630.00,99.70
3629.00,99.71
3628.00,99.71
3627.00,99.71
3626.00,99.71
3625.00,99.71
3624.00,99.72
3623.00,99.72
3622.00,99.72
3621.00,99.72
3620.00,99.72
3619.00,99.72
3618.00,99.72
3617.00,99.72
3616.00,99.72
3615.00,99.72
3614.00,99.72
3613.00,99.72
3612.00,99.72
3611.00,99.72
3610.00,99.71
3609.00,99.71
3608.00,99.71
3607.00,99.70
3606.00,99.70
3605.00,99.70
3604.00,99.71
3603.00,99.70
3602.00,99.70
3601.00,99.69
3600.00,99.68
3599.00,99.66
3598.00,99.65
3597.00,99.64
3596.00,99.63
3595.00,99.62
3594.00,99.61
3593.00,99.60
3592.00,99.59
3591.00,99.58
3590.00,99.58
3589.00,99.57
3588.00,99.56
3587.00,99.55
3586.00,99.55
3585.00,99.54
3584.00,99.53
3583.00,99.53
3582.00,99.52
3581.00,99.51
3580.00,99.50
3579.00,99.50
3578.00,99.49
3577.00,99.48
3576.00,99.47
3575.00,99.47
3574.00,99.46
3573.00,99.46
3572.00,99.45
3571.00,99.44
3570.00,99.43
3569.00,99.41
3568.00,99.40
3567.00,99.40
3566.00,99.40
3565.00,99.40
3564.00,99.40
3563.00,99.40
3562.00,99.40
3561.00,99.40
3560.00,99.39
3559.00,99.38
3558.00,99.38
3557.00,99.37
3556.00,99.36
3555.00,99.36
3554.00,99.36
3553.00,99.35
3552.00,99.34
3551.00,99.33
3550.00,99.31
3549.00,99.31
3548.00,99.31
3547.00,99.31
3546.00,99.31
3545.00,99.31
3544.00,99.29
3543.00,99.28
3542.00,99.26
3541.00,99.24
3540.00,99.23
3539.00,99.23
3538.00,99.23
3537.00,99.22
3536.00,99.22
3535.00,99.20
3534.00,99.19
3533.00,99.19
3532.00,99.18
3531.00,99.18
3530.00,99.18
3529.00,99.18
3528.00,99.19
3527.00,99.21
3526.00,99.23
3525.00,99.24
3524.00,99.25
3523.00,99.25
3522.00,99.25
3521.00,99.25
3520.00,99.26
3519.00,99.28
3518.00,99.29
3517.00,99.31
3516.00,99.33
3515.00,99.35
3514.00,99.36
3513.00,99.36
3512.00,99.37
3511.00,99.37
3510.00,99.38
3509.00,99.39
3508.00,99.41
3507.00,99.42
3506.00,99.43
3505.00,99.43
3504.00,99.44
3503.00,99.45
3502.00,99.45
3501.00,99.46
3500.00,99.46
3499.00,99.46
3498.00,99.47
3497.00,99.48
3496.00,99.48
3495.00,99.48
3494.00,99.48
3493.00,99.48
3492.00,99.49
3491.00,99.49
3490.00,99.50
3489.00,99.50
3488.00,99.50
3487.00,99.50
3486.00,99.50
3485.00,99.50
3484.00,99.50
3483.00,99.50
3482.00,99.50
3481.00,99.50
3480.00,99.51
3479.00,99.51
3478.00,99.51
3477.00,99.51
3476.00,99.51
3475.00,99.51
3474.00,99.52
3473.00,99.52
3472.00,99.53
3471.00,99.53
3470.00,99.54
3469.00,99.54
3468.00,99.54
3467.00,99.54
3466.00,99.54
3465.00,99.54
3464.00,99.54
3463.00,99.54
3462.00,99.54
3461.00,99.54
3460.00,99.54
3459.00,99.55
3458.00,99.55
3457.00,99.55
3456.00,99.55
3455.00,99.55
3454.00,99.55
3453.00,99.55
3452.00,99.55
3451.00,99.55
3450.00,99.56
3449.00,99.56
3448.00,99.56
3447.00,99.56
3446.00,99.56
3445.00,99.57
3444.00,99.57
3443.00,99.57
3442.00,99.57
3441.00,99.57
3440.00,99.57
3439.00,99.57
3438.00,99.57
3437.00,99.58
3436.00,99.58
3435.00,99.59
3434.00,99.59
3433.00,99.59
3432.00,99.59
3431.00,99.59
3430.00,99.59
3429.00,99.59
3428.00,99.59
3427.00,99.59
3426.00,99.59
3425.00,99.59
3424.00,99.59
3423.00,99.59
3422.00,99.59
3421.00,99.59
3420.00,99.59
3419.00,99.59
3418.00,99.59
3417.00,99.59
3416.00,99.59
3415.00,99.59
3414.00,99.60
3413.00,99.60
3412.00,99.60
3411.00,99.60
3410.00,99.59
3409.00,99.59
3408.00,99.59
3407.00,99.59
3406.00,99.59
3405.00,99.59
3404.00,99.59
3403.00,99.60
3402.00,99.60
3401.00,99.60
3400.00,99.60
3399.00,99.60
3398.00,99.59
3397.00,99.59
3396.00,99.59
3395.00,99.58
3394.00,99.58
3393.00,99.57
3392.00,99.57
3391.00,99.57
3390.00,99.57
3389.00,99.57
3388.00,99.57
3387.00,99.57
3386.00,99.57
3385.00,99.57
3384.00,99.57
3383.00,99.57
3382.00,99.57
3381.00,99.56
3380.00,99.56
3379.00,99.56
3378.00,99.56
3377.00,99.56
3376.00,99.56
3375.00,99.57
3374.00,99.57
3373.00,99.57
3372.00,99.56
3371.00,99.56
3370.00,99.56
3369.00,99.56
3368.00,99.56
3367.00,99.56
3366.00,99.56
3365.00,99.56
3364.00,99.56
3363.00,99.56
3362.00,99.56
3361.00,99.56
3360.00,99.56
3359.00,99.56
3358.00,99.56
3357.00,99.56
3356.00,99.56
3355.00,99.56
3354.00,99.57
3353.00,99.57
3352.00,99.57
3351.00,99.57
3350.00,99.57
3349.00,99.57
3348.00,99.57
3347.00,99.57
3346.00,99.57
3345.00,99.57
3344.00,99.57
3343.00,99.57
3342.00,99.57
3341.00,99.57
3340.00,99.57
3339.00,99.56
3338.00,99.56
3337.00,99.56
3336.00,99.56
3335.00,99.56
3334.00,99.56
3333.00,99.56
3332.00,99.56
3331.00,99.56
3330.00,99.56
3329.00,99.55
3328.00,99.55
3327.00,99.55
3326.00,99.55
3325.00,99.55
3324.00,99.55
3323.00,99.55
3322.00,99.54
3321.00,99.54
3320.00,99.54
3319.00,99.55
3318.00,99.55
3317.00,99.55
3316.00,99.54
3315.00,99.54
3314.00,99.54
3313.00,99.53
3312.00,99.53
3311.00,99.53
3310.00,99.53
3309.00,99.53
3308.00,99.54
3307.00,99.54
3306.00,99.53
3305.00,99.53
3304.00,99.52
3303.00,99.52
3302.00,99.52
3301.00,99.52
3300.00,99.51
3299.00,99.51
3298.00,99.51
3297.00,99.51
3296.00,99.51
3295.00,99.50
3294.00,99.50
3293.00,99.50
3292.00,99.50
3291.00,99.50
3290.00,99.50
3289.00,99.49
3288.00,99.49
3287.00,99.49
3286.00,99.49
3285.00,99.50
3284.00,99.50
3283.00,99.50
3282.00,99.50
3281.00,99.49
3280.00,99.49
3279.00,99.49
3278.00,99.49
3277.00,99.49
3276.00,99.49
3275.00,99.50
3274.00,99.50
3273.00,99.50
3272.00,99.50
3271.00,99.50
3270.00,99.50
3269.00,99.49
3268.00,99.48
3267.00,99.48
3266.00,99.48
3265.00,99.49
3264.00,99.49
3263.00,99.49
3262.00,99.49
3261.00,99.49
3260.00,99.49
3259.00,99.48
3258.00,99.48
3257.00,99.48
3256.00,99.48
3255.00,99.48
3254.00,99.48
3253.00,99.48
3252.00,99.48
3251.00,99.48
3250.00,99.48
3249.00,99.48
3248.00,99.48
3247.00,99.48
3246.00,99.48
3245.00,99.48
3244.00,99.48
3243.00,99.48
3242.00,99.49
3241.00,99.49
3240.00,99.49
3239.00,99.49
3238.00,99.48
3237.00,99.48
3236.00,99.48
3235.00,99.48
3234.00,99.48
3233.00,99.48
3232.00,99.47
3231.00,99.47
3230.00,99.47
3229.00,99.47
3228.00,99.47
3227.00,99.47
3226.00,99.47
3225.00,99.47
3224.00,99.47
3223.00,99.47
3222.00,99.47
3221.00,99.46
3220.00,99.46
3219.00,99.45
3218.00,99.45
3217.00,99.44
3216.00,99.44
3215.00,99.44
3214.00,99.44
3213.00,99.43
3212.00,99.43
3211.00,99.42
3210.00,99.41
3209.00,99.41
3208.00,99.41
3207.00,99.40
3206.00,99.40
3205.00,99.39
3204.00,99.39
3203.00,99.38
3202.00,99.38
3201.00,99.37
3200.00,99.37
3199.00,99.36
3198.00,99.36
3197.00,99.36
3196.00,99.35
3195.00,99.35
3194.00,99.35
3193.00,99.35
3192.00,99.35
3191.00,99.35
3190.00,99.35
3189.00,99.35
3188.00,99.36
3187.00,99.36
3186.00,99.36
3185.00,99.36
3184.00,99.36
3183.00,99.36
3182.00,99.36
3181.00,99.36
3180.00,99.36
3179.00,99.36
3178.00,99.36
3177.00,99.36
3176.00,99.36
3175.00,99.37
3174.00,99.37
3173.00,99.37
3172.00,99.38
3171.00,99.38
3170.00,99.38
3169.00,99.38
3168.00,99.38
3167.00,99.38
3166.00,99.38
3165.00,99.38
3164.00,99.38
3163.00,99.38
3162.00,99.38
3161.00,99.38
3160.00,99.38
3159.00,99.38
3158.00,99.37
3157.00,99.37
3156.00,99.36
3155.00,99.36
3154.00,99.36
3153.00,99.36
3152.00,99.35
3151.00,99.34
3150.00,99.33
3149.00,99.32
3148.00,99.32
3147.00,99.32
3146.00,99.31
3145.00,99.31
3144.00,99.30
3143.00,99.29
3142.00,99.28
3141.00,99.26
3140.00,99.25
3139.00,99.24
3138.00,99.23
3137.00,99.22
3136.00,99.20
3135.00,99.18
3134.00,99.16
3133.00,99.13
3132.00,99.11
3131.00,99.09
3130.00,99.06
3129.00,99.04
3128.00,99.02
3127.00,98.99
3126.00,98.96
3125.00,98.93
3124.00,98.90
3123.00,98.88
3122.00,98.86
3121.00,98.84
3120.00,98.83
3119.00,98.81
3118.00,98.80
3117.00,98.79
3116.00,98.78
3115.00,98.77
3114.00,98.77
3113.00,98.76
3112.00,98.75
3111.00,98.75
3110.00,98.74
3109.00,98.73
3108.00,98.73
3107.00,98.72
3106.00,98.72
3105.00,98.72
3104.00,98.72
3103.00,98.72
3102.00,98.72
3101.00,98.72
3100.00,98.72
3099.00,98.72
3098.00,98.71
3097.00,98.70
3096.00,98.68
3095.00,98.66
3094.00,98.64
3093.00,98.61
3092.00,98.58
3091.00,98.54
3090.00,98.50
3089.00,98.46
3088.00,98.42
3087.00,98.38
3086.00,98.33
3085.00,98.28
3084.00,98.22
3083.00,98.17
3082.00,98.11
3081.00,98.06
3080.00,98.01
3079.00,97.96
3078.00,97.91
3077.00,97.86
3076.00,97.81
3075.00,97.75
3074.00,97.70
3073.00,97.64
3072.00,97.58
3071.00,97.52
3070.00,97.46
3069.00,97.40
3068.00,97.33
3067.00,97.26
3066.00,97.19
3065.00,97.12
3064.00,97.05
3063.00,97.00
3062.00,96.96
3061.00,96.93
3060.00,96.91
3059.00,96.91
3058.00,96.93
3057.00,96.96
3056.00,97.00
3055.00,97.05
3054.00,97.10
3053.00,97.14
3052.00,97.17
3051.00,97.18
3050.00,97.16
3049.00,97.12
3048.00,97.06
3047.00,96.99
3046.00,96.91
3045.00,96.83
3044.00,96.76
3043.00,96.71
3042.00,96.69
3041.00,96.70
3040.00,96.74
3039.00,96.82
3038.00,96.94
3037.00,97.08
3036.00,97.24
3035.00,97.41
3034.00,97.59
3033.00,97.76
3032.00,97.91
3031.00,98.05
3030.00,98.17
3029.00,98.26
3028.00,98.34
3027.00,98.40
3026.00,98.45
3025.00,98.48
3024.00,98.50
3023.00,98.51
3022.00,98.52
3021.00,98.51
3020.00,98.51
3019.00,98.49
3018.00,98.48
3017.00,98.46
3016.00,98.43
3015.00,98.40
3014.00,98.36
3013.00,98.31
3012.00,98.25
3011.00,98.18
3010.00,98.11
3009.00,98.02
3008.00,97.93
3007.00,97.84
3006.00,97.74
3005.00,97.64
3004.00,97.52
3003.00,97.39
3002.00,97.26
3001.00,97.11
3000.00,96.95
2999.00,96.78
2998.00,96.59
2997.00,96.38
2996.00,96.17
2995.00,95.93
2994.00,95.68
2993.00,95.42
2992.00,95.13
2991.00,94.81
2990.00,94.47
2989.00,94.10
2988.00,93.70
2987.00,93.28
2986.00,92.83
2985.00,92.36
2984.00,91.86
2983.00,91.34
2982.00,90.79
2981.00,90.23
2980.00,89.65
2979.00,89.06
2978.00,88.48
2977.00,87.89
2976.00,87.32
2975.00,86.77
2974.00,86.27
2973.00,85.81
2972.00,85.42
2971.00,85.11
2970.00,84.91
2969.00,84.82
2968.00,84.85
2967.00,85.03
2966.00,85.33
2965.00,85.77
2964.00,86.31
2963.00,86.94
2962.00,87.63
2961.00,88.35
2960.00,89.08
2959.00,89.79
2958.00,90.45
2957.00,91.05
2956.00,91.59
2955.00,92.05
2954.00,92.43
2953.00,92.74
2952.00,92.97
2951.00,93.15
2950.00,93.27
2949.00,93.33
2948.00,93.36
2947.00,93.36
2946.00,93.33
2945.00,93.28
2944.00,93.22
2943.00,93.13
2942.00,93.04
2941.00,92.93
2940.00,92.82
2939.00,92.71
2938.00,92.59
2937.00,92.49
2936.00,92.41
2935.00,92.35
2934.00,92.33
2933.00,92.35
2932.00,92.40
2931.00,92.49
2930.00,92.61
2929.00,92.76
2928.00,92.92
2927.00,93.10
2926.00,93.29
2925.00,93.47
2924.00,93.65
2923.00,93.82
2922.00,93.98
2921.00,94.12
2920.00,94.24
2919.00,94.35
2918.00,94.45
2917.00,94.53
2916.00,94.62
2915.00,94.70
2914.00,94.78
2913.00,94.86
2912.00,94.96
2911.00,95.07
2910.00,95.19
2909.00,95.31
2908.00,95.45
2907.00,95.58
2906.00,95.71
2905.00,95.83
2904.00,95.94
2903.00,96.02
2902.00,96.09
2901.00,96.13
2900.00,96.14
2899.00,96.14
2898.00,96.12
2897.00,96.09
2896.00,96.06
2895.00,96.03
2894.00,96.01
2893.00,96.01
2892.00,96.03
2891.00,96.06
2890.00,96.09
2889.00,96.14
2888.00,96.17
2887.00,96.19
2886.00,96.18
2885.00,96.14
2884.00,96.06
2883.00,95.95
2882.00,95.81
2881.00,95.65
2880.00,95.47
2879.00,95.29
2878.00,95.12
2877.00,94.96
2876.00,94.84
2875.00,94.76
2874.00,94.74
2873.00,94.78
2872.00,94.88
2871.00,95.05
2870.00,95.27
2869.00,95.53
2868.00,95.82
2867.00,96.12
2866.00,96.40
2865.00,96.66
2864.00,96.88
2863.00,97.07
2862.00,97.21
2861.00,97.32
2860.00,97.40
2859.00,97.45
2858.00,97.48
2857.00,97.51
2856.00,97.52
2855.00,97.54
2854.00,97.57
2853.00,97.61
2852.00,97.66
2851.00,97.74
2850.00,97.85
2849.00,97.97
2848.00,98.12
2847.00,98.26
2846.00,98.40
2845.00,98.53
2844.00,98.64
2843.00,98.74
2842.00,98.83
2841.00,98.90
2840.00,98.96
2839.00,99.01
2838.00,99.06
2837.00,99.09
2836.00,99.13
2835.00,99.15
2834.00,99.17
2833.00,99.19
2832.00,99.20
2831.00,99.21
2830.00,99.22
2829.00,99.23
2828.00,99.24
2827.00,99.25
2826.00,99.26
2825.00,99.27
2824.00,99.27
2823.00,99.28
2822.00,99.28
2821.00,99.28
2820.00,99.28
2819.00,99.29
2818.00,99.29
2817.00,99.29
2816.00,99.29
2815.00,99.28
2814.00,99.28
2813.00,99.27
2812.00,99.27
2811.00,99.27
2810.00,99.27
2809.00,99.28
2808.00,99.28
2807.00,99.29
2806.00,99.30
2805.00,99.31
2804.00,99.32
2803.00,99.33
2802.00,99.35
2801.00,99.36
2800.00,99.36
2799.00,99.37
2798.00,99.38
2797.00,99.38
2796.00,99.38
2795.00,99.38
2794.00,99.38
2793.00,99.37
2792.00,99.36
2791.00,99.35
2790.00,99.34
2789.00,99.33
2788.00,99.33
2787.00,99.32
2786.00,99.31
2785.00,99.30
2784.00,99.29
2783.00,99.28
2782.00,99.27
2781.00,99.26
2780.00,99.26
2779.00,99.26
2778.00,99.27
2777.00,99.28
2776.00,99.29
2775.00,99.30
2774.00,99.31
2773.00,99.33
2772.00,99.34
2771.00,99.36
2770.00,99.37
2769.00,99.39
2768.00,99.40
2767.00,99.41
2766.00,99.42
2765.00,99.43
2764.00,99.44
2763.00,99.45
2762.00,99.46
2761.00,99.48
2760.00,99.49
2759.00,99.50
2758.00,99.51
2757.00,99.52
2756.00,99.53
2755.00,99.54
2754.00,99.55
2753.00,99.55
2752.00,99.56
2751.00,99.56
2750.00,99.57
2749.00,99.57
2748.00,99.57
2747.00,99.57
2746.00,99.57
2745.00,99.57
2744.00,99.56
2743.00,99.56
2742.00,99.55
2741.00,99.55
2740.00,99.55
2739.00,99.55
2738.00,99.54
2737.00,99.54
2736.00,99.53
2735.00,99.53
2734.00,99.52
2733.00,99.52
2732.00,99.52
2731.00,99.52
2730.00,99.53
2729.00,99.53
2728.00,99.53
2727.00,99.53
2726.00,99.53
2725.00,99.53
2724.00,99.53
2723.00,99.52
2722.00,99.52
2721.00,99.51
2720.00,99.50
2719.00,99.50
2718.00,99.50
2717.00,99.50
2716.00,99.51
2715.00,99.51
2714.00,99.52
2713.00,99.53
2712.00,99.53
2711.00,99.54
2710.00,99.55
2709.00,99.55
2708.00,99.56
2707.00,99.57
2706.00,99.58
2705.00,99.59
2704.00,99.59
2703.00,99.60
2702.00,99.60
2701.00,99.61
2700.00,99.61
2699.00,99.61
2698.00,99.62
2697.00,99.62
2696.00,99.62
2695.00,99.63
2694.00,99.63
2693.00,99.64
2692.00,99.64
2691.00,99.64
2690.00,99.65
2689.00,99.65
2688.00,99.65
2687.00,99.65
2686.00,99.65
2685.00,99.65
2684.00,99.65
2683.00,99.65
2682.00,99.65
2681.00,99.65
2680.00,99.64
2679.00,99.64
2678.00,99.64
2677.00,99.64
2676.00,99.64
2675.00,99.63
2674.00,99.63
2673.00,99.63
2672.00,99.63
2671.00,99.63
2670.00,99.63
2669.00,99.63
2668.00,99.63
2667.00,99.63
2666.00,99.63
2665.00,99.62
2664.00,99.61
2663.00,99.61
2662.00,99.60
2661.00,99.60
2660.00,99.59
2659.00,99.59
2658.00,99.58
2657.00,99.58
2656.00,99.58
2655.00,99.58
2654.00,99.58
2653.00,99.58
2652.00,99.58
2651.00,99.58
2650.00,99.58
2649.00,99.59
2648.00,99.59
2647.00,99.59
2646.00,99.59
2645.00,99.59
2644.00,99.59
2643.00,99.59
2642.00,99.59
2641.00,99.59
2640.00,99.59
2639.00,99.59
2638.00,99.59
2637.00,99.58
2636.00,99.58
2635.00,99.58
2634.00,99.58
2633.00,99.58
2632.00,99.58
2631.00,99.57
2630.00,99.57
2629.00,99.56
2628.00,99.56
2627.00,99.55
2626.00,99.54
2625.00,99.53
2624.00,99.52
2623.00,99.51
2622.00,99.51
2621.00,99.50
2620.00,99.50
2619.00,99.49
2618.00,99.49
2617.00,99.48
2616.00,99.48
2615.00,99.48
2614.00,99.47
2613.00,99.47
2612.00,99.47
2611.00,99.47
2610.00,99.47
2609.00,99.46
2608.00,99.46
2607.00,99.47
2606.00,99.47
2605.00,99.47
2604.00,99.47
2603.00,99.47
2602.00,99.47
2601.00,99.47
2600.00,99.47
2599.00,99.47
2598.00,99.47
2597.00,99.47
2596.00,99.47
2595.00,99.47
2594.00,99.48
2593.00,99.47
2592.00,99.47
2591.00,99.48
2590.00,99.48
2589.00,99.48
2588.00,99.48
2587.00,99.48
2586.00,99.49
2585.00,99.49
2584.00,99.50
2583.00,99.50
2582.00,99.50
2581.00,99.51
2580.00,99.51
2579.00,99.52
2578.00,99.52
2577.00,99.52
2576.00,99.53
2575.00,99.53
2574.00,99.54
2573.00,99.55
2572.00,99.56
2571.00,99.56
2570.00,99.57
2569.00,99.58
2568.00,99.59
2567.00,99.59
2566.00,99.60
2565.00,99.60
2564.00,99.60
2563.00,99.60
2562.00,99.60
2561.00,99.60
2560.00,99.60
2559.00,99.60
2558.00,99.61
2557.00,99.61
2556.00,99.61
2555.00,99.61
2554.00,99.60
2553.00,99.60
2552.00,99.59
2551.00,99.59
2550.00,99.59
2549.00,99.59
2548.00,99.59
2547.00,99.59
2546.00,99.59
2545.00,99.59
2544.00,99.59
2543.00,99.58
2542.00,99.58
2541.00,99.58
2540.00,99.57
2539.00,99.57
2538.00,99.56
2537.00,99.55
2536.00,99.55
2535.00,99.54
2534.00,99.54
2533.00,99.54
2532.00,99.53
2531.00,99.54
2530.00,99.54
2529.00,99.54
2528.00,99.54
2527.00,99.54
2526.00,99.55
2525.00,99.55
2524.00,99.55
2523.00,99.56
2522.00,99.56
2521.00,99.56
2520.00,99.57
2519.00,99.57
2518.00,99.57
2517.00,99.57
2516.00,99.56
2515.00,99.56
2514.00,99.55
2513.00,99.55
2512.00,99.54
2511.00,99.54
2510.00,99.53
2509.00,99.52
2508.00,99.51
2507.00,99.51
2506.00,99.51
2505.00,99.51
2504.00,99.51
2503.00,99.50
2502.00,99.50
2501.00,99.49
2500.00,99.48
2499.00,99.47
2498.00,99.46
2497.00,99.45
2496.00,99.44
2495.00,99.43
2494.00,99.42
2493.00,99.40
2492.00,99.39
2491.00,99.39
2490.00,99.38
2489.00,99.37
2488.00,99.37
2487.00,99.36
2486.00,99.35
2485.00,99.34
2484.00,99.33
2483.00,99.32
2482.00,99.31
2481.00,99.31
2480.00,99.30
2479.00,99.30
2478.00,99.29
2477.00,99.29
2476.00,99.28
2475.00,99.27
2474.00,99.27
2473.00,99.26
2472.00,99.26
2471.00,99.26
2470.00,99.25
2469.00,99.25
2468.00,99.25
2467.00,99.24
2466.00,99.24
2465.00,99.24
2464.00,99.24
2463.00,99.24
2462.00,99.24
2461.00,99.23
2460.00,99.23
2459.00,99.23
2458.00,99.23
2457.00,99.23
2456.00,99.23
2455.00,99.23
2454.00,99.23
2453.00,99.23
2452.00,99.23
2451.00,99.23
2450.00,99.24
2449.00,99.24
2448.00,99.25
2447.00,99.25
2446.00,99.26
2445.00,99.26
2444.00,99.26
2443.00,99.26
2442.00,99.26
2441.00,99.27
2440.00,99.27
2439.00,99.27
2438.00,99.27
2437.00,99.27
2436.00,99.27
2435.00,99.27
2434.00,99.27
2433.00,99.27
2432.00,99.27
2431.00,99.26
2430.00,99.25
2429.00,99.24
2428.00,99.23
2427.00,99.22
2426.00,99.21
2425.00,99.20
2424.00,99.18
2423.00,99.17
2422.00,99.16
2421.00,99.15
2420.00,99.14
2419.00,99.14
2418.00,99.13
2417.00,99.12
2416.00,99.11
2415.00,99.11
2414.00,99.11
2413.00,99.10
2412.00,99.10
2411.00,99.10
2410.00,99.10
2409.00,99.10
2408.00,99.10
2407.00,99.11
2406.00,99.13
2405.00,99.14
2404.00,99.15
2403.00,99.16
2402.00,99.16
2401.00,99.16
2400.00,99.16
2399.00,99.16
2398.00,99.17
2397.00,99.17
2396.00,99.18
2395.00,99.19
2394.00,99.20
2393.00,99.20
2392.00,99.21
2391.00,99.23
2390.00,99.24
2389.00,99.26
2388.00,99.27
2387.00,99.29
2386.00,99.30
2385.00,99.32
2384.00,99.33
2383.00,99.34
2382.00,99.35
2381.00,99.36
2380.00,99.37
2379.00,99.38
2378.00,99.40
2377.00,99.42
2376.00,99.43
2375.00,99.44
2374.00,99.45
2373.00,99.45
2372.00,99.45
2371.00,99.45
2370.00,99.44
2369.00,99.44
2368.00,99.43
2367.00,99.44
2366.00,99.44
2365.00,99.45
2364.00,99.44
2363.00,99.44
2362.00,99.44
2361.00,99.44
2360.00,99.42
2359.00,99.42
2358.00,99.42
2357.00,99.43
2356.00,99.44
2355.00,99.45
2354.00,99.46
2353.00,99.45
2352.00,99.44
2351.00,99.43
2350.00,99.43
2349.00,99.43
2348.00,99.42
2347.00,99.42
2346.00,99.41
2345.00,99.39
2344.00,99.38
2343.00,99.38
2342.00,99.38
2341.00,99.39
2340.00,99.39
2339.00,99.38
2338.00,99.37
2337.00,99.35
2336.00,99.34
2335.00,99.35
2334.00,99.35
2333.00,99.36
2332.00,99.35
2331.00,99.35
2330.00,99.34
2329.00,99.32
2328.00,99.29
2327.00,99.25
2326.00,99.20
2325.00,99.14
2324.00,99.10
2323.00,99.09
2322.00,99.12
2321.00,99.15
2320.00,99.18
2319.00,99.21
2318.00,99.23
2317.00,99.25
2316.00,99.25
2315.00,99.26
2314.00,99.27
2313.00,99.27
2312.00,99.27
2311.00,99.28
2310.00,99.29
2309.00,99.29
2308.00,99.29
2307.00,99.29
2306.00,99.29
2305.00,99.29
2304.00,99.28
2303.00,99.28
2302.00,99.28
2301.00,99.27
2300.00,99.27
2299.00,99.26
2298.00,99.26
2297.00,99.25
2296.00,99.24
2295.00,99.23
2294.00,99.22
2293.00,99.20
2292.00,99.19
2291.00,99.17
2290.00,99.16
2289.00,99.14
2288.00,99.12
2287.00,99.10
2286.00,99.08
2285.00,99.07
2284.00,99.06
2283.00,99.06
2282.00,99.07
2281.00,99.06
2280.00,99.06
2279.00,99.06
2278.00,99.06
2277.00,99.06
2276.00,99.06
2275.00,99.06
2274.00,99.06
2273.00,99.05
2272.00,99.03
2271.00,99.02
2270.00,99.00
2269.00,98.98
2268.00,98.95
2267.00,98.94
2266.00,98.93
2265.00,98.90
2264.00,98.87
2263.00,98.84
2262.00,98.80
2261.00,98.76
2260.00,98.70
2259.00,98.65
2258.00,98.61
2257.00,98.56
2256.00,98.52
2255.00,98.50
2254.00,98.48
2253.00,98.45
2252.00,98.41
2251.00,98.37
2250.00,98.33
2249.00,98.28
2248.00,98.24
2247.00,98.21
2246.00,98.18
2245.00,98.14
2244.00,98.11
2243.00,98.08
2242.00,98.04
2241.00,98.00
2240.00,97.97
2239.00,97.94
2238.00,97.92
2237.00,97.90
2236.00,97.88
2235.00,97.87
2234.00,97.87
2233.00,97.87
2232.00,97.87
2231.00,97.90
2230.00,97.93
2229.00,97.94
2228.00,97.96
2227.00,97.98
2226.00,98.02
2225.00,98.06
2224.00,98.10
2223.00,98.15
2222.00,98.19
2221.00,98.23
2220.00,98.27
2219.00,98.33
2218.00,98.39
2217.00,98.43
2216.00,98.46
2215.00,98.48
2214.00,98.52
2213.00,98.55
2212.00,98.58
2211.00,98.61
2210.00,98.62
2209.00,98.62
2208.00,98.60
2207.00,98.59
2206.00,98.59
2205.00,98.58
2204.00,98.56
2203.00,98.55
2202.00,98.54
2201.00,98.53
2200.00,98.51
2199.00,98.51
2198.00,98.51
2197.00,98.50
2196.00,98.51
2195.00,98.53
2194.00,98.56
2193.00,98.58
2192.00,98.60
2191.00,98.63
2190.00,98.67
2189.00,98.70
2188.00,98.73
2187.00,98.77
2186.00,98.82
2185.00,98.86
2184.00,98.90
2183.00,98.95
2182.00,99.01
2181.00,99.04
2180.00,99.06
2179.00,99.07
2178.00,99.07
2177.00,99.07
2176.00,99.08
2175.00,99.11
2174.00,99.14
2173.00,99.14
2172.00,99.12
2171.00,99.11
2170.00,99.10
2169.00,99.07
2168.00,99.03
2167.00,99.02
2166.00,99.04
2165.00,99.05
2164.00,99.04
2163.00,99.04
2162.00,99.05
2161.00,99.10
2160.00,99.23
2159.00,99.45
2158.00,99.69
2157.00,99.84
2156.00,99.90
2155.00,99.91
2154.00,99.88
2153.00,99.82
2152.00,99.76
2151.00,99.72
2150.00,99.69
2149.00,99.68
2148.00,99.68
2147.00,99.69
2146.00,99.70
2145.00,99.70
2144.00,99.70
2143.00,99.70
2142.00,99.69
2141.00,99.67
2140.00,99.65
2139.00,99.64
2138.00,99.64
2137.00,99.63
2136.00,99.64
2135.00,99.67
2134.00,99.70
2133.00,99.71
2132.00,99.70
2131.00,99.68
2130.00,99.65
2129.00,99.61
2128.00,99.56
2127.00,99.52
2126.00,99.49
2125.00,99.45
2124.00,99.42
2123.00,99.39
2122.00,99.37
2121.00,99.34
2120.00,99.32
2119.00,99.31
2118.00,99.30
2117.00,99.28
2116.00,99.24
2115.00,99.22
2114.00,99.21
2113.00,99.19
2112.00,99.18
2111.00,99.17
2110.00,99.17
2109.00,99.15
2108.00,99.14
2107.00,99.13
2106.00,99.12
2105.00,99.11
2104.00,99.10
2103.00,99.10
2102.00,99.11
2101.00,99.10
2100.00,99.07
2099.00,99.06
2098.00,99.05
2097.00,99.04
2096.00,99.04
2095.00,99.04
2094.00,99.03
2093.00,99.00
2092.00,98.95
2091.00,98.91
2090.00,98.87
2089.00,98.82
2088.00,98.77
2087.00,98.73
2086.00,98.70
2085.00,98.67
2084.00,98.65
2083.00,98.64
2082.00,98.64
2081.00,98.63
2080.00,98.63
2079.00,98.65
2078.00,98.67
2077.00,98.68
2076.00,98.69
2075.00,98.70
2074.00,98.73
2073.00,98.74
2072.00,98.76
2071.00,98.78
2070.00,98.80
2069.00,98.80
2068.00,98.78
2067.00,98.77
2066.00,98.77
2065.00,98.76
2064.00,98.74
2063.00,98.72
2062.00,98.70
2061.00,98.65
2060.00,98.61
2059.00,98.57
2058.00,98.54
2057.00,98.50
2056.00,98.45
2055.00,98.43
2054.00,98.41
2053.00,98.37
2052.00,98.30
2051.00,98.25
2050.00,98.24
2049.00,98.26
2048.00,98.30
2047.00,98.37
2046.00,98.44
2045.00,98.47
2044.00,98.48
2043.00,98.51
2042.00,98.55
2041.00,98.57
2040.00,98.58
2039.00,98.61
2038.00,98.66
2037.00,98.68
2036.00,98.71
2035.00,98.75
2034.00,98.81
2033.00,98.84
2032.00,98.85
2031.00,98.87
2030.00,98.89
2029.00,98.89
2028.00,98.88
2027.00,98.90
2026.00,98.92
2025.00,98.92
2024.00,98.91
2023.00,98.92
2022.00,98.93
2021.00,98.91
2020.00,98.88
2019.00,98.88
2018.00,98.89
2017.00,98.88
2016.00,98.86
2015.00,98.86
2014.00,98.85
2013.00,98.82
2012.00,98.77
2011.00,98.75
2010.00,98.75
2009.00,98.75
2008.00,98.77
2007.00,98.82
2006.00,98.89
2005.00,98.91
2004.00,98.89
2003.00,98.86
2002.00,98.85
2001.00,98.83
2000.00,98.80
1999.00,98.79
1998.00,98.78
1997.00,98.76
1996.00,98.73
1995.00,98.72
1994.00,98.71
1993.00,98.70
1992.00,98.68
1991.00,98.70
1990.00,98.73
1989.00,98.73
1988.00,98.72
1987.00,98.75
1986.00,98.78
1985.00,98.78
1984.00,98.76
1983.00,98.76
1982.00,98.76
1981.00,98.74
1980.00,98.72
1979.00,98.75
1978.00,98.84
1977.00,98.93
1976.00,99.00
1975.00,99.06
1974.00,99.11
1973.00,99.11
1972.00,99.10
1971.00,99.12
1970.00,99.13
1969.00,99.12
1968.00,99.10
1967.00,99.12
1966.00,99.15
1965.00,99.16
1964.00,99.15
1963.00,99.15
1962.00,99.16
1961.00,99.16
1960.00,99.15
1959.00,99.18
1958.00,99.20
1957.00,99.18
1956.00,99.14
1955.00,99.11
1954.00,99.10
1953.00,99.08
1952.00,99.05
1951.00,99.06
1950.00,99.07
1949.00,99.06
1948.00,99.03
1947.00,99.03
1946.00,99.03
1945.00,99.01
1944.00,98.98
1943.00,98.98
1942.00,99.00
1941.00,98.99
1940.00,98.98
1939.00,98.99
1938.00,99.00
1937.00,98.99
1936.00,98.97
1935.00,98.98
1934.00,98.99
1933.00,98.98
1932.00,98.95
1931.00,98.95
1930.00,98.95
1929.00,98.93
1928.00,98.90
1927.00,98.89
1926.00,98.87
1925.00,98.83
1924.00,98.78
1923.00,98.75
1922.00,98.73
1921.00,98.70
1920.00,98.66
1919.00,98.63
1918.00,98.60
1917.00,98.55
1916.00,98.48
1915.00,98.42
1914.00,98.35
1913.00,98.25
1912.00,98.14
1911.00,98.03
1910.00,97.94
1909.00,97.82
1908.00,97.70
1907.00,97.60
1906.00,97.51
1905.00,97.41
1904.00,97.31
1903.00,97.23
1902.00,97.18
1901.00,97.14
1900.00,97.11
1899.00,97.11
1898.00,97.14
1897.00,97.17
1896.00,97.20
1895.00,97.26
1894.00,97.34
1893.00,97.40
1892.00,97.45
1891.00,97.53
1890.00,97.63
1889.00,97.71
1888.00,97.77
1887.00,97.84
1886.00,97.90
1885.00,97.94
1884.00,97.96
1883.00,97.99
1882.00,98.03
1881.00,98.04
1880.00,98.04
1879.00,98.06
1878.00,98.09
1877.00,98.09
1876.00,98.09
1875.00,98.12
1874.00,98.15
1873.00,98.17
1872.00,98.17
1871.00,98.18
1870.00,98.20
1869.00,98.19
1868.00,98.19
1867.00,98.21
1866.00,98.23
1865.00,98.23
1864.00,98.21
1863.00,98.21
1862.00,98.20
1861.00,98.17
1860.00,98.13
1859.00,98.11
1858.00,98.11
1857.00,98.08
1856.00,98.04
1855.00,98.03
1854.00,98.03
1853.00,98.01
1852.00,97.98
1851.00,97.97
1850.00,97.96
1849.00,97.93
1848.00,97.89
1847.00,97.88
1846.00,97.89
1845.00,97.86
1844.00,97.82
1843.00,97.79
1842.00,97.78
1841.00,97.74
1840.00,97.68
1839.00,97.64
1838.00,97.61
1837.00,97.55
1836.00,97.49
1835.00,97.45
1834.00,97.41
1833.00,97.35
1832.00,97.27
1831.00,97.21
1830.00,97.16
1829.00,97.08
1828.00,96.99
1827.00,96.94
1826.00,96.90
1825.00,96.81
1824.00,96.72
1823.00,96.65
1822.00,96.60
1821.00,96.51
1820.00,96.39
1819.00,96.30
1818.00,96.21
1817.00,96.08
1816.00,95.90
1815.00,95.74
1814.00,95.56
1813.00,95.33
1812.00,95.04
1811.00,94.77
1810.00,94.49
1809.00,94.15
1808.00,93.75
1807.00,93.35
1806.00,92.91
1805.00,92.37
1804.00,91.75
1803.00,91.08
1802.00,90.31
1801.00,89.37
1800.00,88.29
1799.00,87.16
1798.00,85.95
1797.00,84.58
1796.00,83.10
1795.00,81.53
1794.00,79.70
1793.00,77.43
1792.00,74.87
1791.00,72.40
1790.00,70.15
1789.00,67.99
1788.00,65.81
1787.00,63.55
1786.00,61.13
1785.00,58.62
1784.00,56.22
1783.00,53.97
1782.00,51.71
1781.00,49.34
1780.00,47.00
1779.00,44.87
1778.00,42.90
1777.00,41.04
1776.00,39.31
1775.00,37.72
1774.00,36.17
1773.00,34.59
1772.00,33.23
1771.00,32.37
1770.00,32.02
1769.00,32.14
1768.00,32.81
1767.00,34.01
1766.00,35.63
1765.00,37.68
1764.00,40.34
1763.00,43.74
1762.00,47.69
1761.00,51.65
1760.00,55.27
1759.00,58.58
1758.00,61.84
1757.00,65.12
1756.00,68.09
1755.00,70.48
1754.00,72.42
1753.00,74.22
1752.00,76.04
1751.00,77.73
1750.00,79.18
1749.00,80.43
1748.00,81.53
1747.00,82.45
1746.00,83.21
1745.00,83.94
1744.00,84.62
1743.00,85.21
1742.00,85.73
1741.00,86.24
1740.00,86.76
1739.00,87.19
1738.00,87.53
1737.00,87.85
1736.00,88.21
1735.00,88.57
1734.00,88.93
1733.00,89.28
1732.00,89.59
1731.00,89.88
1730.00,90.17
1729.00,90.51
1728.00,90.85
1727.00,91.17
1726.00,91.46
1725.00,91.79
1724.00,92.14
1723.00,92.45
1722.00,92.71
1721.00,92.96
1720.00,93.21
1719.00,93.45
1718.00,93.67
1717.00,93.92
1716.00,94.17
1715.00,94.37
1714.00,94.55
1713.00,94.73
1712.00,94.91
1711.00,95.07
1710.00,95.21
1709.00,95.36
1708.00,95.51
1707.00,95.65
1706.00,95.79
1705.00,95.93
1704.00,96.08
1703.00,96.20
1702.00,96.32
1701.00,96.46
1700.00,96.59
1699.00,96.65
1698.00,96.69
1697.00,96.79
1696.00,96.93
1695.00,97.03
1694.00,97.08
1693.00,97.12
1692.00,97.17
1691.00,97.21
1690.00,97.23
1689.00,97.25
1688.00,97.29
1687.00,97.31
1686.00,97.32
1685.00,97.34
1684.00,97.36
1683.00,97.35
1682.00,97.33
1681.00,97.33
1680.00,97.34
1679.00,97.35
1678.00,97.34
1677.00,97.34
1676.00,97.32
1675.00,97.27
1674.00,97.19
1673.00,97.14
1672.00,97.11
1671.00,97.07
1670.00,97.02
1669.00,96.97
1668.00,96.94
1667.00,96.90
1666.00,96.87
1665.00,96.85
1664.00,96.83
1663.00,96.80
1662.00,96.75
1661.00,96.72
1660.00,96.71
1659.00,96.69
1658.00,96.66
1657.00,96.64
1656.00,96.64
1655.00,96.64
1654.00,96.64
1653.00,96.65
1652.00,96.65
1651.00,96.63
1650.00,96.62
1649.00,96.62
1648.00,96.66
1647.00,96.71
1646.00,96.75
1645.00,96.80
1644.00,96.84
1643.00,96.87
1642.00,96.90
1641.00,96.94
1640.00,96.98
1639.00,97.02
1638.00,97.06
1637.00,97.13
1636.00,97.22
1635.00,97.28
1634.00,97.30
1633.00,97.32
1632.00,97.34
1631.00,97.35
1630.00,97.35
1629.00,97.35
1628.00,97.35
1627.00,97.34
1626.00,97.31
1625.00,97.28
1624.00,97.24
1623.00,97.17
1622.00,97.10
1621.00,97.03
1620.00,96.96
1619.00,96.88
1618.00,96.76
1617.00,96.59
1616.00,96.40
1615.00,96.20
1614.00,95.98
1613.00,95.73
1612.00,95.42
1611.00,95.02
1610.00,94.55
1609.00,94.03
1608.00,93.50
1607.00,92.99
1606.00,92.54
1605.00,92.18
1604.00,91.92
1603.00,91.78
1602.00,91.75
1601.00,91.82
1600.00,91.92
1599.00,92.01
1598.00,92.05
1597.00,92.03
1596.00,91.95
1595.00,91.87
1594.00,91.85
1593.00,91.95
1592.00,92.20
1591.00,92.58
1590.00,93.07
1589.00,93.64
1588.00,94.22
1587.00,94.76
1586.00,95.25
1585.00,95.67
1584.00,96.02
1583.00,96.30
1582.00,96.51
1581.00,96.68
1580.00,96.80
1579.00,96.90
1578.00,96.99
1577.00,97.09
1576.00,97.20
1575.00,97.28
1574.00,97.32
1573.00,97.36
1572.00,97.41
1571.00,97.46
1570.00,97.49
1569.00,97.52
1568.00,97.54
1567.00,97.56
1566.00,97.56
1565.00,97.57
1564.00,97.57
1563.00,97.57
1562.00,97.56
1561.00,97.56
1560.00,97.54
1559.00,97.52
1558.00,97.49
1557.00,97.46
1556.00,97.43
1555.00,97.40
1554.00,97.36
1553.00,97.31
1552.00,97.27
1551.00,97.21
1550.00,97.16
1549.00,97.11
1548.00,97.06
1547.00,97.00
1546.00,96.90
1545.00,96.80
1544.00,96.73
1543.00,96.66
1542.00,96.58
1541.00,96.50
1540.00,96.43
1539.00,96.34
1538.00,96.25
1537.00,96.18
1536.00,96.12
1535.00,96.03
1534.00,95.87
1533.00,95.70
1532.00,95.55
1531.00,95.39
1530.00,95.20
1529.00,94.98
1528.00,94.71
1527.00,94.39
1526.00,94.01
1525.00,93.63
1524.00,93.24
1523.00,92.70
1522.00,91.88
1521.00,90.90
1520.00,89.97
1519.00,88.93
1518.00,87.46
1517.00,85.43
1516.00,83.05
1515.00,80.52
1514.00,77.69
1513.00,74.34
1512.00,70.56
1511.00,66.67
1510.00,62.84
1509.00,58.94
1508.00,54.52
1507.00,49.74
1506.00,46.11
1505.00,44.46
1504.00,44.16
1503.00,44.53
1502.00,45.34
1501.00,46.70
1500.00,48.73
1499.00,51.36
1498.00,54.44
1497.00,57.92
1496.00,61.51
1495.00,64.72
1494.00,67.40
1493.00,69.80
1492.00,72.26
1491.00,74.91
1490.00,77.52
1489.00,79.78
1488.00,81.63
1487.00,83.16
1486.00,84.43
1485.00,85.46
1484.00,86.31
1483.00,87.04
1482.00,87.65
1481.00,88.11
1480.00,88.45
1479.00,88.68
1478.00,88.82
1477.00,88.86
1476.00,88.84
1475.00,88.78
1474.00,88.65
1473.00,88.40
1472.00,88.10
1471.00,87.79
1470.00,87.49
1469.00,87.16
1468.00,86.84
1467.00,86.53
1466.00,86.29
1465.00,86.20
1464.00,86.33
1463.00,86.69
1462.00,87.18
1461.00,87.76
1460.00,88.41
1459.00,89.13
1458.00,89.92
1457.00,90.65
1456.00,91.10
1455.00,91.29
1454.00,91.35
1453.00,91.38
1452.00,91.42
1451.00,91.52
1450.00,91.68
1449.00,91.92
1448.00,92.21
1447.00,92.51
1446.00,92.79
1445.00,93.08
1444.00,93.37
1443.00,93.69
1442.00,94.02
1441.00,94.34
1440.00,94.63
1439.00,94.88
1438.00,95.12
1437.00,95.33
1436.00,95.49
1435.00,95.58
1434.00,95.63
1433.00,95.68
1432.00,95.72
1431.00,95.73
1430.00,95.73
1429.00,95.72
1428.00,95.69
1427.00,95.63
1426.00,95.55
1425.00,95.44
1424.00,95.31
1423.00,95.15
1422.00,94.97
1421.00,94.72
1420.00,94.28
1419.00,93.63
1418.00,92.83
1417.00,91.94
1416.00,90.92
1415.00,89.77
1414.00,88.51
1413.00,87.24
1412.00,86.09
1411.00,85.25
1410.00,84.83
1409.00,84.83
1408.00,85.23
1407.00,86.00
1406.00,87.07
1405.00,88.28
1404.00,89.45
1403.00,90.43
1402.00,91.21
1401.00,91.85
1400.00,92.41
1399.00,92.87
1398.00,93.21
1397.00,93.43
1396.00,93.54
1395.00,93.53
1394.00,93.37
1393.00,93.04
1392.00,92.55
1391.00,91.90
1390.00,91.15
1389.00,90.38
1388.00,89.74
1387.00,89.46
1386.00,89.64
1385.00,90.23
1384.00,91.07
1383.00,92.01
1382.00,92.88
1381.00,93.57
1380.00,94.05
1379.00,94.35
1378.00,94.52
1377.00,94.59
1376.00,94.59
1375.00,94.52
1374.00,94.37
1373.00,94.11
1372.00,93.68
1371.00,93.01
1370.00,91.98
1369.00,90.55
1368.00,88.82
1367.00,87.09
1366.00,85.68
1365.00,84.93
1364.00,85.11
1363.00,86.33
1362.00,88.25
1361.00,90.28
1360.00,91.99
1359.00,93.25
1358.00,94.11
1357.00,94.65
1356.00,94.99
1355.00,95.22
1354.00,95.37
1353.00,95.47
1352.00,95.55
1351.00,95.61
1350.00,95.66
1349.00,95.70
1348.00,95.74
1347.00,95.78
1346.00,95.81
1345.00,95.83
1344.00,95.84
1343.00,95.84
1342.00,95.81
1341.00,95.78
1340.00,95.76
1339.00,95.75
1338.00,95.76
1337.00,95.77
1336.00,95.77
1335.00,95.78
1334.00,95.77
1333.00,95.75
1332.00,95.72
1331.00,95.70
1330.00,95.66
1329.00,95.62
1328.00,95.58
1327.00,95.53
1326.00,95.47
1325.00,95.39
1324.00,95.31
1323.00,95.22
1322.00,95.09
1321.00,94.94
1320.00,94.74
1319.00,94.49
1318.00,94.16
1317.00,93.73
1316.00,93.19
1315.00,92.53
1314.00,91.78
1313.00,91.00
1312.00,90.31
1311.00,89.79
1310.00,89.51
1309.00,89.47
1308.00,89.59
1307.00,89.77
1306.00,89.90
1305.00,89.90
1304.00,89.73
1303.00,89.40
1302.00,88.92
1301.00,88.31
1300.00,87.60
1299.00,86.83
1298.00,86.02
1297.00,85.20
1296.00,84.43
1295.00,83.75
1294.00,83.19
1293.00,82.77
1292.00,82.52
1291.00,82.45
1290.00,82.53
1289.00,82.74
1288.00,83.06
1287.00,83.45
1286.00,83.89
1285.00,84.35
1284.00,84.81
1283.00,85.26
1282.00,85.70
1281.00,86.09
1280.00,86.43
1279.00,86.70
1278.00,86.90
1277.00,87.01
1276.00,87.03
1275.00,86.95
1274.00,86.78
1273.00,86.50
1272.00,86.11
1271.00,85.62
1270.00,85.00
1269.00,84.24
1268.00,83.34
1267.00,82.28
1266.00,81.07
1265.00,79.68
1264.00,78.11
1263.00,76.38
1262.00,74.50
1261.00,72.48
1260.00,70.36
1259.00,68.19
1258.00,66.03
1257.00,63.87
1256.00,61.73
1255.00,59.66
1254.00,57.68
1253.00,55.77
1252.00,53.94
1251.00,52.22
1250.00,50.62
1249.00,49.11
1248.00,47.68
1247.00,46.37
1246.00,45.16
1245.00,44.01
1244.00,42.89
1243.00,41.84
1242.00,40.84
1241.00,39.83
1240.00,38.79
1239.00,37.76
1238.00,36.74
1237.00,35.66
1236.00,34.53
1235.00,33.40
1234.00,32.28
1233.00,31.10
1232.00,29.89
1231.00,28.68
1230.00,27.49
1229.00,26.27
1228.00,25.02
1227.00,23.80
1226.00,22.63
1225.00,21.47
1224.00,20.34
1223.00,19.32
1222.00,18.44
1221.00,17.69
1220.00,17.10
1219.00,16.79
1218.00,16.82
1217.00,17.22
1216.00,18.06
1215.00,19.49
1214.00,21.55
1213.00,24.18
1212.00,27.29
1211.00,30.72
1210.00,34.17
1209.00,37.27
1208.00,39.69
1207.00,41.25
1206.00,41.85
1205.00,41.49
1204.00,40.32
1203.00,38.57
1202.00,36.43
1201.00,34.03
1200.00,31.47
1199.00,28.89
1198.00,26.33
1197.00,23.79
1196.00,21.29
1195.00,18.92
1194.00,16.68
1193.00,14.56
1192.00,12.58
1191.00,10.82
1190.00,9.34
1189.00,8.12
1188.00,7.23
1187.00,6.80
1186.00,6.92
1185.00,7.57
1184.00,8.75
1183.00,10.41
1182.00,12.44
1181.00,14.62
1180.00,16.88
1179.00,19.28
1178.00,21.90
1177.00,24.75
1176.00,27.79
1175.00,30.83
1174.00,33.48
1173.00,35.27
1172.00,35.89
1171.00,35.25
1170.00,33.43
1169.00,30.62
1168.00,27.15
1167.00,23.40
1166.00,19.68
1165.00,16.16
1164.00,13.00
1163.00,10.36
1162.00,8.28
1161.00,6.75
1160.00,5.74
1159.00,5.29
1158.00,5.33
1157.00,5.74
1156.00,6.47
1155.00,7.53
1154.00,8.88
1153.00,10.43
1152.00,12.16
1151.00,14.06
1150.00,16.11
1149.00,18.21
1148.00,20.32
1147.00,22.46
1146.00,24.62
1145.00,26.74
1144.00,28.82
1143.00,30.89
1142.00,32.94
1141.00,34.91
1140.00,36.81
1139.00,38.64
1138.00,40.41
1137.00,42.08
1136.00,43.64
1135.00,45.15
1134.00,46.59
1133.00,47.95
1132.00,49.22
1131.00,50.45
1130.00,51.63
1129.00,52.74
1128.00,53.78
1127.00,54.78
1126.00,55.72
1125.00,56.57
1124.00,57.32
1123.00,57.99
1122.00,58.54
1121.00,58.96
1120.00,59.21
1119.00,59.33
1118.00,59.31
1117.00,59.12
1116.00,58.77
1115.00,58.27
1114.00,57.65
1113.00,56.94
1112.00,56.20
1111.00,55.57
1110.00,55.12
1109.00,54.88
1108.00,54.77
1107.00,54.70
1106.00,54.54
1105.00,54.25
1104.00,53.90
1103.00,53.72
1102.00,53.94
1101.00,54.71
1100.00,56.07
1099.00,57.93
1098.00,60.09
1097.00,62.29
1096.00,64.33
1095.00,66.11
1094.00,67.59
1093.00,68.74
1092.00,69.51
1091.00,69.82
1090.00,69.54
1089.00,68.44
1088.00,66.36
1087.00,63.19
1086.00,58.97
1085.00,53.89
1084.00,48.35
1083.00,42.93
1082.00,38.30
1081.00,35.15
1080.00,34.09
1079.00,35.42
1078.00,38.87
1077.00,43.62
1076.00,48.71
1075.00,53.40
1074.00,57.34
1073.00,60.52
1072.00,63.07
1071.00,65.19
1070.00,66.99
1069.00,68.51
1068.00,69.81
1067.00,70.94
1066.00,71.93
1065.00,72.80
1064.00,73.58
1063.00,74.28
1062.00,74.93
1061.00,75.52
1060.00,76.06
1059.00,76.57
1058.00,77.05
1057.00,77.51
1056.00,77.94
1055.00,78.36
1054.00,78.77
1053.00,79.16
1052.00,79.53
1051.00,79.90
1050.00,80.27
1049.00,80.64
1048.00,80.99
1047.00,81.34
1046.00,81.70
1045.00,82.05
1044.00,82.40
1043.00,82.74
1042.00,83.09
1041.00,83.43
1040.00,83.77
1039.00,84.11
1038.00,84.44
1037.00,84.76
1036.00,85.07
1035.00,85.35
1034.00,85.62
1033.00,85.85
1032.00,86.02
1031.00,86.11
1030.00,86.09
1029.00,85.88
1028.00,85.39
1027.00,84.52
1026.00,83.17
1025.00,81.25
1024.00,78.73
1023.00,75.60
1022.00,71.80
1021.00,67.19
1020.00,61.58
1019.00,54.90
1018.00,47.37
1017.00,39.59
1016.00,32.59
1015.00,27.61
1014.00,25.55
1013.00,26.38
1012.00,29.16
1011.00,32.56
1010.00,35.46
1009.00,37.37
1008.00,38.48
1007.00,39.28
1006.00,40.26
1005.00,41.78
1004.00,44.01
1003.00,46.91
1002.00,50.19
1001.00,53.48
1000.00,56.43
999.00,58.84
998.00,60.65
997.00,61.92
996.00,62.84
995.00,63.59
994.00,64.34
993.00,65.19
992.00,66.21
991.00,67.38
990.00,68.66
989.00,69.98
988.00,71.27
987.00,72.48
986.00,73.58
985.00,74.55
984.00,75.39
983.00,76.12
982.00,76.77
981.00,77.33
980.00,77.83
979.00,78.28
978.00,78.69
977.00,79.05
976.00,79.39
975.00,79.70
974.00,79.98
973.00,80.22
972.00,80.43
971.00,80.61
970.00,80.74
969.00,80.82
968.00,80.87
967.00,80.87
966.00,80.86
965.00,80.81
964.00,80.76
963.00,80.72
962.00,80.70
961.00,80.72
960.00,80.81
959.00,80.99
958.00,81.26
957.00,81.60
956.00,81.99
955.00,82.39
954.00,82.75
953.00,83.04
952.00,83.22
951.00,83.31
950.00,83.28
949.00,83.17
948.00,82.99
947.00,82.79
946.00,82.58
945.00,82.42
944.00,82.33
943.00,82.33
942.00,82.42
941.00,82.57
940.00,82.75
939.00,82.91
938.00,83.03
937.00,83.11
936.00,83.20
935.00,83.36
934.00,83.63
933.00,84.02
932.00,84.48
931.00,84.95
930.00,85.39
929.00,85.73
928.00,85.97
927.00,86.09
926.00,86.09
925.00,85.96
924.00,85.72
923.00,85.39
922.00,85.03
921.00,84.70
920.00,84.46
919.00,84.38
918.00,84.46
917.00,84.70
916.00,85.06
915.00,85.50
914.00,85.96
913.00,86.41
912.00,86.83
911.00,87.19
910.00,87.50
909.00,87.75
908.00,87.96
907.00,88.13
906.00,88.26
905.00,88.36
904.00,88.40
903.00,88.38
902.00,88.28
901.00,88.05
900.00,87.67
899.00,87.07
898.00,86.16
897.00,84.86
896.00,83.11
895.00,80.88
894.00,78.26
893.00,75.42
892.00,72.59
891.00,70.03
890.00,67.97
889.00,66.52
888.00,65.73
887.00,65.59
886.00,66.01
885.00,66.86
884.00,68.03
883.00,69.43
882.00,70.94
881.00,72.49
880.00,74.03
879.00,75.52
878.00,76.96
877.00,78.31
876.00,79.58
875.00,80.74
874.00,81.81
873.00,82.77
872.00,83.63
871.00,84.39
870.00,85.06
869.00,85.63
868.00,86.11
867.00,86.49
866.00,86.78
865.00,86.95
864.00,86.98
863.00,86.88
862.00,86.64
861.00,86.26
860.00,85.73
859.00,85.06
858.00,84.22
857.00,83.20
856.00,82.00
855.00,80.62
854.00,79.09
853.00,77.43
852.00,75.69
851.00,73.93
850.00,72.19
849.00,70.50
848.00,68.89
847.00,67.41
846.00,66.07
845.00,64.85
844.00,63.71
843.00,62.62
842.00,61.49
841.00,60.23
840.00,58.76
839.00,57.08
838.00,55.18
837.00,53.09
836.00,50.83
835.00,48.53
834.00,46.27
833.00,44.13
832.00,42.21
831.00,40.67
830.00,39.61
829.00,39.10
828.00,39.18
827.00,39.88
826.00,41.11
825.00,42.67
824.00,44.31
823.00,45.87
822.00,47.17
821.00,48.07
820.00,48.55
819.00,48.69
818.00,48.58
817.00,48.33
816.00,48.09
815.00,48.05
814.00,48.35
813.00,49.02
812.00,50.08
811.00,51.51
810.00,53.24
809.00,55.14
808.00,57.13
807.00,59.19
806.00,61.30
805.00,63.41
804.00,65.50
803.00,67.54
802.00,69.46
801.00,71.19
800.00,72.69
799.00,73.95
798.00,74.98
797.00,75.79
796.00,76.40
795.00,76.83
794.00,77.11
793.00,77.22
792.00,77.21
791.00,77.12
790.00,76.99
789.00,76.83
788.00,76.63
787.00,76.40
786.00,76.11
785.00,75.74
784.00,75.29
783.00,74.74
782.00,74.08
781.00,73.28
780.00,72.33
779.00,71.25
778.00,70.02
777.00,68.62
776.00,67.07
775.00,65.41
774.00,63.70
773.00,62.03
772.00,60.48
771.00,59.17
770.00,58.16
769.00,57.48
768.00,57.12
767.00,57.06
766.00,57.24
765.00,57.55
764.00,57.92
763.00,58.31
762.00,58.70
761.00,59.07
760.00,59.46
759.00,59.92
758.00,60.47
757.00,61.10
756.00,61.83
755.00,62.66
754.00,63.58
753.00,64.57
752.00,65.58
751.00,66.59
750.00,67.61
749.00,68.59
748.00,69.54
747.00,70.45
746.00,71.30
745.00,72.08
744.00,72.78
743.00,73.39
742.00,73.93
741.00,74.38
740.00,74.75
739.00,75.03
738.00,75.20
737.00,75.20
736.00,75.04
735.00,74.75
734.00,74.41
733.00,74.10
732.00,73.91
731.00,73.85
730.00,73.89
729.00,73.99
728.00,74.13
727.00,74.34
726.00,74.61
725.00,74.96
724.00,75.34
723.00,75.74
722.00,76.08
721.00,76.30
720.00,76.38
719.00,76.29
718.00,76.05
717.00,75.67
716.00,75.19
715.00,74.64
714.00,74.05
713.00,73.43
712.00,72.81
711.00,72.21
710.00,71.67
709.00,71.22
708.00,70.88
707.00,70.71
706.00,70.72
705.00,70.93
704.00,71.36
703.00,71.99
702.00,72.77
701.00,73.62
700.00,74.47
699.00,75.29
698.00,76.06
697.00,76.75
696.00,77.34
695.00,77.81
694.00,78.17
693.00,78.41
692.00,78.51
691.00,78.51
690.00,78.43
689.00,78.34
688.00,78.33
687.00,78.50
686.00,78.84
685.00,79.31
684.00,79.83
683.00,80.32
682.00,80.76
681.00,81.12
680.00,81.41
679.00,81.66
678.00,81.87
677.00,82.06
676.00,82.22
675.00,82.38
674.00,82.52
673.00,82.65
672.00,82.75
671.00,82.85
670.00,82.95
669.00,83.04
668.00,83.11
667.00,83.18
666.00,83.28
665.00,83.38
664.00,83.48
663.00,83.55
662.00,83.60
661.00,83.64
660.00,83.69
659.00,83.75
658.00,83.82
657.00,83.89
656.00,83.94
655.00,83.96
654.00,83.97
653.00,83.98
652.00,84.02
651.00,84.06
650.00,84.11
