Created as New Dataset,PE (high density) granule GF
cm-1,%T
4000.00,99.77
3999.00,99.77
3998.00,99.78
3997.00,99.78
3996.00,99.78
3995.00,99.78
3994.00,99.78
3993.00,99.78
3992.00,99.77
3991.00,99.77
3990.00,99.77
3989.00,99.78
3988.00,99.78
3987.00,99.78
3986.00,99.78
3985.00,99.78
3984.00,99.78
3983.00,99.77
3982.00,99.77
3981.00,99.76
3980.00,99.76
3979.00,99.76
3978.00,99.76
3977.00,99.76
3976.00,99.76
3975.00,99.76
3974.00,99.76
3973.00,99.76
3972.00,99.76
3971.00,99.76
3970.00,99.77
3969.00,99.77
3968.00,99.77
3967.00,99.77
3966.00,99.77
3965.00,99.78
3964.00,99.78
3963.00,99.78
3962.00,99.78
3961.00,99.78
3960.00,99.77
3959.00,99.77
3958.00,99.77
3957.00,99.77
3956.00,99.77
3955.00,99.77
3954.00,99.78
3953.00,99.78
3952.00,99.77
3951.00,99.77
3950.00,99.77
3949.00,99.77
3948.00,99.77
3947.00,99.76
3946.00,99.76
3945.00,99.76
3944.00,99.76
3943.00,99.76
3942.00,99.77
3941.00,99.77
3940.00,99.77
3939.00,99.77
3938.00,99.77
3937.00,99.76
3936.00,99.76
3935.00,99.76
3934.00,99.76
3933.00,99.76
3932.00,99.76
3931.00,99.76
3930.00,99.75
3929.00,99.75
3928.00,99.75
3927.00,99.75
3926.00,99.75
3925.00,99.75
3924.00,99.75
3923.00,99.75
3922.00,99.75
3921.00,99.75
3920.00,99.75
3919.00,99.75
3918.00,99.75
3917.00,99.75
3916.00,99.75
3915.00,99.75
3914.00,99.75
3913.00,99.75
3912.00,99.74
3911.00,99.74
3910.00,99.74
3909.00,99.74
3908.00,99.75
3907.00,99.75
3906.00,99.75
3905.00,99.75
3904.00,99.75
3903.00,99.75
3902.00,99.74
3901.00,99.74
3900.00,99.74
3899.00,99.74
3898.00,99.74
3897.00,99.74
3896.00,99.74
3895.00,99.74
3894.00,99.74
3893.00,99.74
3892.00,99.74
3891.00,99.74
3890.00,99.74
3889.00,99.74
3888.00,99.74
3887.00,99.74
3886.00,99.74
3885.00,99.74
3884.00,99.75
3883.00,99.74
3882.00,99.73
3881.00,99.73
3880.00,99.73
3879.00,99.74
3878.00,99.74
3877.00,99.74
3876.00,99.74
3875.00,99.74
3874.00,99.74
3873.00,99.74
3872.00,99.74
3871.00,99.74
3870.00,99.74
3869.00,99.75
3868.00,99.75
3867.00,99.74
3866.00,99.74
3865.00,99.75
3864.00,99.76
3863.00,99.76
3862.00,99.76
3861.00,99.76
3860.00,99.76
3859.00,99.76
3858.00,99.77
3857.00,99.77
3856.00,99.77
3855.00,99.77
3854.00,99.77
3853.00,99.77
3852.00,99.77
3851.00,99.76
3850.00,99.76
3849.00,99.76
3848.00,99.76
3847.00,99.76
3846.00,99.76
3845.00,99.76
3844.00,99.76
3843.00,99.77
3842.00,99.77
3841.00,99.77
3840.00,99.76
3839.00,99.76
3838.00,99.76
3837.00,99.76
3836.00,99.76
3835.00,99.75
3834.00,99.75
3833.00,99.75
3832.00,99.75
3831.00,99.75
3830.00,99.75
3829.00,99.75
3828.00,99.75
3827.00,99.75
3826.00,99.75
3825.00,99.75
3824.00,99.74
3823.00,99.74
3822.00,99.74
3821.00,99.74
3820.00,99.74
3819.00,99.74
3818.00,99.74
3817.00,99.74
3816.00,99.74
3815.00,99.75
3814.00,99.75
3813.00,99.74
3812.00,99.74
3811.00,99.74
3810.00,99.75
3809.00,99.75
3808.00,99.75
3807.00,99.75
3806.00,99.76
3805.00,99.76
3804.00,99.76
3803.00,99.76
3802.00,99.76
3801.00,99.76
3800.00,99.77
3799.00,99.77
3798.00,99.77
3797.00,99.77
3796.00,99.77
3795.00,99.77
3794.00,99.77
3793.00,99.77
3792.00,99.77
3791.00,99.77
3790.00,99.78
3789.00,99.78
3788.00,99.78
3787.00,99.78
3786.00,99.77
3785.00,99.77
3784.00,99.77
3783.00,99.77
3782.00,99.77
3781.00,99.77
3780.00,99.77
3779.00,99.77
3778.00,99.77
3777.00,99.77
3776.00,99.77
3775.00,99.77
3774.00,99.77
3773.00,99.77
3772.00,99.77
3771.00,99.77
3770.00,99.77
3769.00,99.77
3768.00,99.77
3767.00,99.77
3766.00,99.77
3765.00,99.77
3764.00,99.78
3763.00,99.78
3762.00,99.78
3761.00,99.77
3760.00,99.77
3759.00,99.77
3758.00,99.77
3757.00,99.77
3756.00,99.77
3755.00,99.77
3754.00,99.77
3753.00,99.77
3752.00,99.77
3751.00,99.76
3750.00,99.76
3749.00,99.76
3748.00,99.76
3747.00,99.76
3746.00,99.76
3745.00,99.76
3744.00,99.77
3743.00,99.77
3742.00,99.77
3741.00,99.76
3740.00,99.76
3739.00,99.76
3738.00,99.76
3737.00,99.76
3736.00,99.76
3735.00,99.76
3734.00,99.75
3733.00,99.75
3732.00,99.75
3731.00,99.76
3730.00,99.76
3729.00,99.76
3728.00,99.77
3727.00,99.77
3726.00,99.78
3725.00,99.78
3724.00,99.78
3723.00,99.78
3722.00,99.78
3721.00,99.78
3720.00,99.78
3719.00,99.78
3718.00,99.78
3717.00,99.78
3716.00,99.78
3715.00,99.77
3714.00,99.77
3713.00,99.77
3712.00,99.77
3711.00,99.77
3710.00,99.77
3709.00,99.77
3708.00,99.76
3707.00,99.76
3706.00,99.76
3705.00,99.76
3704.00,99.76
3703.00,99.76
3702.00,99.75
3701.00,99.76
3700.00,99.76
3699.00,99.76
3698.00,99.76
3697.00,99.76
3696.00,99.77
3695.00,99.77
3694.00,99.77
3693.00,99.77
3692.00,99.77
3691.00,99.77
3690.00,99.77
3689.00,99.76
3688.00,99.76
3687.00,99.76
3686.00,99.76
3685.00,99.76
3684.00,99.77
3683.00,99.77
3682.00,99.77
3681.00,99.77
3680.00,99.77
3679.00,99.77
3678.00,99.77
3677.00,99.76
3676.00,99.76
3675.00,99.77
3674.00,99.77
3673.00,99.76
3672.00,99.76
3671.00,99.75
3670.00,99.75
3669.00,99.75
3668.00,99.75
3667.00,99.75
3666.00,99.75
3665.00,99.75
3664.00,99.76
3663.00,99.76
3662.00,99.76
3661.00,99.76
3660.00,99.75
3659.00,99.75
3658.00,99.74
3657.00,99.74
3656.00,99.74
3655.00,99.74
3654.00,99.74
3653.00,99.73
3652.00,99.73
3651.00,99.73
3650.00,99.73
3649.00,99.72
3648.00,99.72
3647.00,99.72
3646.00,99.72
3645.00,99.72
3644.00,99.73
3643.00,99.73
3642.00,99.73
3641.00,99.73
3640.00,99.73
3639.00,99.73
3638.00,99.73
3637.00,99.73
3636.00,99.73
3635.00,99.73
3634.00,99.74
3633.00,99.74
3632.00,99.74
3631.00,99.73
3630.00,99.73
3629.00,99.72
3628.00,99.72
3627.00,99.72
3626.00,99.72
3625.00,99.72
3624.00,99.71
3623.00,99.71
3622.00,99.70
3621.00,99.70
3620.00,99.69
3619.00,99.69
3618.00,99.68
3617.00,99.68
3616.00,99.67
3615.00,99.66
3614.00,99.64
3613.00,99.63
3612.00,99.61
3611.00,99.59
3610.00,99.57
3609.00,99.56
3608.00,99.56
3607.00,99.55
3606.00,99.55
3605.00,99.55
3604.00,99.56
3603.00,99.57
3602.00,99.58
3601.00,99.60
3600.00,99.62
3599.00,99.64
3598.00,99.65
3597.00,99.67
3596.00,99.68
3595.00,99.70
3594.00,99.71
3593.00,99.72
3592.00,99.73
3591.00,99.74
3590.00,99.74
3589.00,99.74
3588.00,99.74
3587.00,99.74
3586.00,99.75
3585.00,99.75
3584.00,99.75
3583.00,99.75
3582.00,99.76
3581.00,99.76
3580.00,99.76
3579.00,99.77
3578.00,99.77
3577.00,99.77
3576.00,99.78
3575.00,99.78
3574.00,99.78
3573.00,99.78
3572.00,99.78
3571.00,99.78
3570.00,99.78
3569.00,99.77
3568.00,99.77
3567.00,99.78
3566.00,99.78
3565.00,99.78
3564.00,99.78
3563.00,99.78
3562.00,99.78
3561.00,99.78
3560.00,99.78
3559.00,99.79
3558.00,99.79
3557.00,99.79
3556.00,99.79
3555.00,99.79
3554.00,99.78
3553.00,99.78
3552.00,99.78
3551.00,99.78
3550.00,99.78
3549.00,99.78
3548.00,99.78
3547.00,99.78
3546.00,99.77
3545.00,99.77
3544.00,99.77
3543.00,99.77
3542.00,99.78
3541.00,99.78
3540.00,99.78
3539.00,99.78
3538.00,99.78
3537.00,99.77
3536.00,99.77
3535.00,99.77
3534.00,99.77
3533.00,99.77
3532.00,99.77
3531.00,99.77
3530.00,99.77
3529.00,99.77
3528.00,99.77
3527.00,99.77
3526.00,99.77
3525.00,99.77
3524.00,99.77
3523.00,99.77
3522.00,99.77
3521.00,99.77
3520.00,99.77
3519.00,99.77
3518.00,99.77
3517.00,99.77
3516.00,99.77
3515.00,99.77
3514.00,99.77
3513.00,99.77
3512.00,99.77
3511.00,99.77
3510.00,99.77
3509.00,99.76
3508.00,99.76
3507.00,99.76
3506.00,99.76
3505.00,99.76
3504.00,99.76
3503.00,99.76
3502.00,99.76
3501.00,99.76
3500.00,99.76
3499.00,99.76
3498.00,99.76
3497.00,99.76
3496.00,99.76
3495.00,99.76
3494.00,99.76
3493.00,99.75
3492.00,99.75
3491.00,99.75
3490.00,99.75
3489.00,99.75
3488.00,99.76
3487.00,99.76
3486.00,99.76
3485.00,99.76
3484.00,99.76
3483.00,99.76
3482.00,99.76
3481.00,99.75
3480.00,99.75
3479.00,99.75
3478.00,99.75
3477.00,99.75
3476.00,99.75
3475.00,99.75
3474.00,99.75
3473.00,99.75
3472.00,99.76
3471.00,99.76
3470.00,99.75
3469.00,99.75
3468.00,99.75
3467.00,99.74
3466.00,99.74
3465.00,99.74
3464.00,99.74
3463.00,99.75
3462.00,99.75
3461.00,99.75
3460.00,99.75
3459.00,99.75
3458.00,99.75
3457.00,99.75
3456.00,99.75
3455.00,99.74
3454.00,99.74
3453.00,99.73
3452.00,99.73
3451.00,99.73
3450.00,99.74
3449.00,99.74
3448.00,99.74
3447.00,99.74
3446.00,99.73
3445.00,99.73
3444.00,99.72
3443.00,99.72
3442.00,99.72
3441.00,99.72
3440.00,99.72
3439.00,99.72
3438.00,99.72
3437.00,99.72
3436.00,99.72
3435.00,99.72
3434.00,99.72
3433.00,99.72
3432.00,99.72
3431.00,99.72
3430.00,99.72
3429.00,99.72
3428.00,99.72
3427.00,99.72
3426.00,99.72
3425.00,99.72
3424.00,99.72
3423.00,99.72
3422.00,99.72
3421.00,99.72
3420.00,99.72
3419.00,99.72
3418.00,99.71
3417.00,99.71
3416.00,99.71
3415.00,99.71
3414.00,99.71
3413.00,99.71
3412.00,99.71
3411.00,99.71
3410.00,99.70
3409.00,99.70
3408.00,99.69
3407.00,99.69
3406.00,99.68
3405.00,99.68
3404.00,99.68
3403.00,99.67
3402.00,99.67
3401.00,99.66
3400.00,99.66
3399.00,99.66
3398.00,99.65
3397.00,99.65
3396.00,99.65
3395.00,99.64
3394.00,99.64
3393.00,99.64
3392.00,99.64
3391.00,99.64
3390.00,99.65
3389.00,99.66
3388.00,99.66
3387.00,99.66
3386.00,99.67
3385.00,99.67
3384.00,99.67
3383.00,99.67
3382.00,99.67
3381.00,99.67
3380.00,99.67
3379.00,99.67
3378.00,99.67
3377.00,99.68
3376.00,99.68
3375.00,99.68
3374.00,99.68
3373.00,99.68
3372.00,99.69
3371.00,99.69
3370.00,99.69
3369.00,99.70
3368.00,99.70
3367.00,99.70
3366.00,99.69
3365.00,99.69
3364.00,99.70
3363.00,99.70
3362.00,99.70
3361.00,99.70
3360.00,99.70
3359.00,99.71
3358.00,99.71
3357.00,99.71
3356.00,99.71
3355.00,99.72
3354.00,99.72
3353.00,99.72
3352.00,99.73
3351.00,99.73
3350.00,99.72
3349.00,99.72
3348.00,99.72
3347.00,99.73
3346.00,99.73
3345.00,99.73
3344.00,99.73
3343.00,99.73
3342.00,99.73
3341.00,99.73
3340.00,99.72
3339.00,99.72
3338.00,99.73
3337.00,99.73
3336.00,99.73
3335.00,99.73
3334.00,99.73
3333.00,99.74
3332.00,99.74
3331.00,99.74
3330.00,99.75
3329.00,99.75
3328.00,99.75
3327.00,99.75
3326.00,99.74
3325.00,99.74
3324.00,99.74
3323.00,99.74
3322.00,99.74
3321.00,99.74
3320.00,99.74
3319.00,99.75
3318.00,99.75
3317.00,99.75
3316.00,99.74
3315.00,99.74
3314.00,99.74
3313.00,99.74
3312.00,99.74
3311.00,99.74
3310.00,99.75
3309.00,99.75
3308.00,99.75
3307.00,99.75
3306.00,99.75
3305.00,99.75
3304.00,99.75
3303.00,99.75
3302.00,99.75
3301.00,99.75
3300.00,99.76
3299.00,99.76
3298.00,99.76
3297.00,99.76
3296.00,99.76
3295.00,99.76
3294.00,99.76
3293.00,99.76
3292.00,99.76
3291.00,99.76
3290.00,99.76
3289.00,99.76
3288.00,99.76
3287.00,99.76
3286.00,99.76
3285.00,99.75
3284.00,99.75
3283.00,99.76
3282.00,99.76
3281.00,99.77
3280.00,99.77
3279.00,99.78
3278.00,99.78
3277.00,99.77
3276.00,99.77
3275.00,99.77
3274.00,99.76
3273.00,99.76
3272.00,99.77
3271.00,99.77
3270.00,99.77
3269.00,99.77
3268.00,99.77
3267.00,99.77
3266.00,99.76
3265.00,99.76
3264.00,99.76
3263.00,99.76
3262.00,99.76
3261.00,99.76
3260.00,99.76
3259.00,99.76
3258.00,99.76
3257.00,99.76
3256.00,99.76
3255.00,99.76
3254.00,99.76
3253.00,99.76
3252.00,99.76
3251.00,99.76
3250.00,99.76
3249.00,99.76
3248.00,99.77
3247.00,99.77
3246.00,99.77
3245.00,99.77
3244.00,99.77
3243.00,99.77
3242.00,99.77
3241.00,99.77
3240.00,99.77
3239.00,99.76
3238.00,99.76
3237.00,99.76
3236.00,99.77
3235.00,99.77
3234.00,99.77
3233.00,99.77
3232.00,99.77
3231.00,99.77
3230.00,99.77
3229.00,99.77
3228.00,99.77
3227.00,99.77
3226.00,99.76
3225.00,99.76
3224.00,99.76
3223.00,99.76
3222.00,99.76
3221.00,99.76
3220.00,99.75
3219.00,99.76
3218.00,99.76
3217.00,99.76
3216.00,99.76
3215.00,99.76
3214.00,99.76
3213.00,99.75
3212.00,99.75
3211.00,99.75
3210.00,99.75
3209.00,99.75
3208.00,99.75
3207.00,99.75
3206.00,99.75
3205.00,99.75
3204.00,99.75
3203.00,99.75
3202.00,99.75
3201.00,99.75
3200.00,99.75
3199.00,99.75
3198.00,99.74
3197.00,99.74
3196.00,99.74
3195.00,99.74
3194.00,99.74
3193.00,99.74
3192.00,99.73
3191.00,99.73
3190.00,99.73
3189.00,99.73
3188.00,99.73
3187.00,99.73
3186.00,99.73
3185.00,99.73
3184.00,99.73
3183.00,99.73
3182.00,99.74
3181.00,99.75
3180.00,99.75
3179.00,99.76
3178.00,99.76
3177.00,99.76
3176.00,99.76
3175.00,99.76
3174.00,99.76
3173.00,99.76
3172.00,99.76
3171.00,99.76
3170.00,99.76
3169.00,99.76
3168.00,99.76
3167.00,99.76
3166.00,99.75
3165.00,99.75
3164.00,99.75
3163.00,99.75
3162.00,99.76
3161.00,99.76
3160.00,99.76
3159.00,99.76
3158.00,99.76
3157.00,99.76
3156.00,99.76
3155.00,99.76
3154.00,99.76
3153.00,99.76
3152.00,99.77
3151.00,99.77
3150.00,99.77
3149.00,99.77
3148.00,99.77
3147.00,99.77
3146.00,99.76
3145.00,99.76
3144.00,99.76
3143.00,99.76
3142.00,99.76
3141.00,99.76
3140.00,99.76
3139.00,99.76
3138.00,99.76
3137.00,99.76
3136.00,99.76
3135.00,99.76
3134.00,99.76
3133.00,99.76
3132.00,99.75
3131.00,99.75
3130.00,99.75
3129.00,99.75
3128.00,99.74
3127.00,99.74
3126.00,99.73
3125.00,99.73
3124.00,99.72
3123.00,99.73
3122.00,99.73
3121.00,99.73
3120.00,99.73
3119.00,99.72
3118.00,99.72
3117.00,99.71
3116.00,99.71
3115.00,99.70
3114.00,99.70
3113.00,99.69
3112.00,99.69
3111.00,99.68
3110.00,99.68
3109.00,99.67
3108.00,99.66
3107.00,99.65
3106.00,99.64
3105.00,99.63
3104.00,99.62
3103.00,99.61
3102.00,99.60
3101.00,99.58
3100.00,99.57
3099.00,99.55
3098.00,99.54
3097.00,99.52
3096.00,99.51
3095.00,99.50
3094.00,99.48
3093.00,99.47
3092.00,99.46
3091.00,99.46
3090.00,99.45
3089.00,99.45
3088.00,99.44
3087.00,99.43
3086.00,99.43
3085.00,99.42
3084.00,99.42
3083.00,99.41
3082.00,99.41
3081.00,99.41
3080.00,99.41
3079.00,99.41
3078.00,99.40
3077.00,99.40
3076.00,99.40
3075.00,99.39
3074.00,99.39
3073.00,99.38
3072.00,99.38
3071.00,99.37
3070.00,99.37
3069.00,99.36
3068.00,99.36
3067.00,99.35
3066.00,99.34
3065.00,99.34
3064.00,99.33
3063.00,99.32
3062.00,99.32
3061.00,99.31
3060.00,99.31
3059.00,99.30
3058.00,99.29
3057.00,99.28
3056.00,99.27
3055.00,99.26
3054.00,99.25
3053.00,99.24
3052.00,99.23
3051.00,99.22
3050.00,99.21
3049.00,99.19
3048.00,99.18
3047.00,99.17
3046.00,99.15
3045.00,99.14
3044.00,99.13
3043.00,99.11
3042.00,99.10
3041.00,99.08
3040.00,99.07
3039.00,99.05
3038.00,99.04
3037.00,99.03
3036.00,99.02
3035.00,99.02
3034.00,99.01
3033.00,99.00
3032.00,99.00
3031.00,98.99
3030.00,98.98
3029.00,98.98
3028.00,98.97
3027.00,98.97
3026.00,98.97
3025.00,98.96
3024.00,98.95
3023.00,98.95
3022.00,98.94
3021.00,98.94
3020.00,98.93
3019.00,98.93
3018.00,98.93
3017.00,98.92
3016.00,98.92
3015.00,98.91
3014.00,98.90
3013.00,98.89
3012.00,98.88
3011.00,98.86
3010.00,98.85
3009.00,98.84
3008.00,98.84
3007.00,98.82
3006.00,98.81
3005.00,98.80
3004.00,98.79
3003.00,98.77
3002.00,98.76
3001.00,98.74
3000.00,98.73
2999.00,98.71
2998.00,98.69
2997.00,98.67
2996.00,98.66
2995.00,98.64
2994.00,98.62
2993.00,98.60
2992.00,98.58
2991.00,98.55
2990.00,98.52
2989.00,98.49
2988.00,98.46
2987.00,98.43
2986.00,98.40
2985.00,98.36
2984.00,98.31
2983.00,98.26
2982.00,98.22
2981.00,98.17
2980.00,98.13
2979.00,98.08
2978.00,98.03
2977.00,97.98
2976.00,97.92
2975.00,97.85
2974.00,97.78
2973.00,97.71
2972.00,97.63
2971.00,97.55
2970.00,97.46
2969.00,97.38
2968.00,97.29
2967.00,97.19
2966.00,97.08
2965.00,96.97
2964.00,96.85
2963.00,96.72
2962.00,96.59
2961.00,96.44
2960.00,96.30
2959.00,96.14
2958.00,95.99
2957.00,95.83
2956.00,95.66
2955.00,95.48
2954.00,95.30
2953.00,95.10
2952.00,94.88
2951.00,94.63
2950.00,94.35
2949.00,94.03
2948.00,93.66
2947.00,93.23
2946.00,92.74
2945.00,92.17
2944.00,91.54
2943.00,90.83
2942.00,90.04
2941.00,89.18
2940.00,88.24
2939.00,87.21
2938.00,86.10
2937.00,84.89
2936.00,83.58
2935.00,82.15
2934.00,80.60
2933.00,78.93
2932.00,77.13
2931.00,75.19
2930.00,73.09
2929.00,70.81
2928.00,68.32
2927.00,65.57
2926.00,62.52
2925.00,59.17
2924.00,55.50
2923.00,51.54
2922.00,47.33
2921.00,42.93
2920.00,38.42
2919.00,33.95
2918.00,29.78
2917.00,26.24
2916.00,23.69
2915.00,22.43
2914.00,22.58
2913.00,24.03
2912.00,26.50
2911.00,29.61
2910.00,33.00
2909.00,36.39
2908.00,39.58
2907.00,42.47
2906.00,45.04
2905.00,47.28
2904.00,49.23
2903.00,50.93
2902.00,52.43
2901.00,53.76
2900.00,54.98
2899.00,56.11
2898.00,57.19
2897.00,58.24
2896.00,59.28
2895.00,60.33
2894.00,61.38
2893.00,62.45
2892.00,63.55
2891.00,64.66
2890.00,65.80
2889.00,66.97
2888.00,68.15
2887.00,69.36
2886.00,70.60
2885.00,71.85
2884.00,73.14
2883.00,74.45
2882.00,75.78
2881.00,77.13
2880.00,78.48
2879.00,79.81
2878.00,81.10
2877.00,82.31
2876.00,83.41
2875.00,84.38
2874.00,85.21
2873.00,85.89
2872.00,86.42
2871.00,86.80
2870.00,87.03
2869.00,87.12
2868.00,87.06
2867.00,86.85
2866.00,86.48
2865.00,85.92
2864.00,85.17
2863.00,84.20
2862.00,82.97
2861.00,81.45
2860.00,79.59
2859.00,77.35
2858.00,74.65
2857.00,71.41
2856.00,67.54
2855.00,62.98
2854.00,57.68
2853.00,51.68
2852.00,45.20
2851.00,38.64
2850.00,32.66
2849.00,28.09
2848.00,25.65
2847.00,25.73
2846.00,28.24
2845.00,32.64
2844.00,38.19
2843.00,44.15
2842.00,49.97
2841.00,55.30
2840.00,60.00
2839.00,64.07
2838.00,67.57
2837.00,70.57
2836.00,73.16
2835.00,75.40
2834.00,77.34
2833.00,79.03
2832.00,80.51
2831.00,81.82
2830.00,82.98
2829.00,84.02
2828.00,84.95
2827.00,85.80
2826.00,86.56
2825.00,87.26
2824.00,87.89
2823.00,88.46
2822.00,88.99
2821.00,89.48
2820.00,89.93
2819.00,90.35
2818.00,90.74
2817.00,91.10
2816.00,91.45
2815.00,91.77
2814.00,92.07
2813.00,92.36
2812.00,92.62
2811.00,92.88
2810.00,93.12
2809.00,93.35
2808.00,93.56
2807.00,93.77
2806.00,93.96
2805.00,94.15
2804.00,94.32
2803.00,94.49
2802.00,94.65
2801.00,94.81
2800.00,94.96
2799.00,95.10
2798.00,95.24
2797.00,95.38
2796.00,95.51
2795.00,95.64
2794.00,95.77
2793.00,95.90
2792.00,96.02
2791.00,96.15
2790.00,96.27
2789.00,96.39
2788.00,96.51
2787.00,96.62
2786.00,96.73
2785.00,96.83
2784.00,96.93
2783.00,97.03
2782.00,97.12
2781.00,97.20
2780.00,97.28
2779.00,97.36
2778.00,97.43
2777.00,97.50
2776.00,97.56
2775.00,97.62
2774.00,97.67
2773.00,97.72
2772.00,97.77
2771.00,97.82
2770.00,97.86
2769.00,97.90
2768.00,97.94
2767.00,97.97
2766.00,98.01
2765.00,98.04
2764.00,98.07
2763.00,98.10
2762.00,98.14
2761.00,98.17
2760.00,98.20
2759.00,98.22
2758.00,98.25
2757.00,98.27
2756.00,98.29
2755.00,98.31
2754.00,98.33
2753.00,98.35
2752.00,98.36
2751.00,98.37
2750.00,98.38
2749.00,98.39
2748.00,98.39
2747.00,98.39
2746.00,98.39
2745.00,98.39
2744.00,98.39
2743.00,98.39
2742.00,98.39
2741.00,98.39
2740.00,98.40
2739.00,98.41
2738.00,98.42
2737.00,98.43
2736.00,98.45
2735.00,98.46
2734.00,98.48
2733.00,98.50
2732.00,98.52
2731.00,98.54
2730.00,98.55
2729.00,98.57
2728.00,98.59
2727.00,98.61
2726.00,98.62
2725.00,98.64
2724.00,98.65
2723.00,98.66
2722.00,98.68
2721.00,98.69
2720.00,98.70
2719.00,98.71
2718.00,98.72
2717.00,98.73
2716.00,98.75
2715.00,98.75
2714.00,98.76
2713.00,98.77
2712.00,98.78
2711.00,98.79
2710.00,98.80
2709.00,98.80
2708.00,98.81
2707.00,98.82
2706.00,98.83
2705.00,98.85
2704.00,98.86
2703.00,98.87
2702.00,98.89
2701.00,98.90
2700.00,98.91
2699.00,98.92
2698.00,98.93
2697.00,98.94
2696.00,98.95
2695.00,98.95
2694.00,98.96
2693.00,98.96
2692.00,98.96
2691.00,98.96
2690.00,98.96
2689.00,98.96
2688.00,98.96
2687.00,98.96
2686.00,98.95
2685.00,98.95
2684.00,98.94
2683.00,98.94
2682.00,98.93
2681.00,98.92
2680.00,98.91
2679.00,98.90
2678.00,98.89
2677.00,98.87
2676.00,98.85
2675.00,98.82
2674.00,98.80
2673.00,98.77
2672.00,98.75
2671.00,98.72
2670.00,98.70
2669.00,98.68
2668.00,98.66
2667.00,98.64
2666.00,98.61
2665.00,98.59
2664.00,98.57
2663.00,98.55
2662.00,98.54
2661.00,98.52
2660.00,98.51
2659.00,98.51
2658.00,98.51
2657.00,98.51
2656.00,98.51
2655.00,98.51
2654.00,98.51
2653.00,98.52
2652.00,98.52
2651.00,98.53
2650.00,98.53
2649.00,98.53
2648.00,98.53
2647.00,98.52
2646.00,98.51
2645.00,98.50
2644.00,98.49
2643.00,98.47
2642.00,98.46
2641.00,98.44
2640.00,98.43
2639.00,98.41
2638.00,98.40
2637.00,98.39
2636.00,98.38
2635.00,98.38
2634.00,98.39
2633.00,98.40
2632.00,98.42
2631.00,98.44
2630.00,98.47
2629.00,98.49
2628.00,98.52
2627.00,98.56
2626.00,98.59
2625.00,98.61
2624.00,98.64
2623.00,98.67
2622.00,98.69
2621.00,98.72
2620.00,98.74
2619.00,98.77
2618.00,98.79
2617.00,98.81
2616.00,98.83
2615.00,98.84
2614.00,98.86
2613.00,98.87
2612.00,98.89
2611.00,98.91
2610.00,98.93
2609.00,98.94
2608.00,98.96
2607.00,98.98
2606.00,98.99
2605.00,99.00
2604.00,99.01
2603.00,99.02
2602.00,99.03
2601.00,99.04
2600.00,99.05
2599.00,99.06
2598.00,99.06
2597.00,99.07
2596.00,99.08
2595.00,99.09
2594.00,99.10
2593.00,99.12
2592.00,99.13
2591.00,99.15
2590.00,99.16
2589.00,99.17
2588.00,99.19
2587.00,99.20
2586.00,99.21
2585.00,99.22
2584.00,99.23
2583.00,99.24
2582.00,99.25
2581.00,99.26
2580.00,99.27
2579.00,99.28
2578.00,99.28
2577.00,99.29
2576.00,99.29
2575.00,99.29
2574.00,99.30
2573.00,99.31
2572.00,99.32
2571.00,99.33
2570.00,99.34
2569.00,99.35
2568.00,99.36
2567.00,99.37
2566.00,99.37
2565.00,99.38
2564.00,99.38
2563.00,99.39
2562.00,99.39
2561.00,99.39
2560.00,99.39
2559.00,99.40
2558.00,99.40
2557.00,99.40
2556.00,99.41
2555.00,99.41
2554.00,99.42
2553.00,99.42
2552.00,99.42
2551.00,99.43
2550.00,99.43
2549.00,99.44
2548.00,99.44
2547.00,99.45
2546.00,99.46
2545.00,99.47
2544.00,99.49
2543.00,99.51
2542.00,99.52
2541.00,99.54
2540.00,99.55
2539.00,99.56
2538.00,99.56
2537.00,99.56
2536.00,99.56
2535.00,99.57
2534.00,99.57
2533.00,99.57
2532.00,99.57
2531.00,99.57
2530.00,99.57
2529.00,99.57
2528.00,99.57
2527.00,99.57
2526.00,99.57
2525.00,99.57
2524.00,99.58
2523.00,99.59
2522.00,99.60
2521.00,99.60
2520.00,99.61
2519.00,99.61
2518.00,99.62
2517.00,99.62
2516.00,99.63
2515.00,99.64
2514.00,99.64
2513.00,99.65
2512.00,99.65
2511.00,99.65
2510.00,99.65
2509.00,99.64
2508.00,99.65
2507.00,99.65
2506.00,99.66
2505.00,99.66
2504.00,99.66
2503.00,99.66
2502.00,99.66
2501.00,99.66
2500.00,99.66
2499.00,99.66
2498.00,99.67
2497.00,99.67
2496.00,99.67
2495.00,99.68
2494.00,99.68
2493.00,99.67
2492.00,99.67
2491.00,99.68
2490.00,99.68
2489.00,99.68
2488.00,99.68
2487.00,99.68
2486.00,99.68
2485.00,99.68
2484.00,99.68
2483.00,99.68
2482.00,99.68
2481.00,99.68
2480.00,99.68
2479.00,99.68
2478.00,99.67
2477.00,99.67
2476.00,99.66
2475.00,99.66
2474.00,99.66
2473.00,99.67
2472.00,99.67
2471.00,99.68
2470.00,99.70
2469.00,99.71
2468.00,99.72
2467.00,99.73
2466.00,99.73
2465.00,99.74
2464.00,99.74
2463.00,99.74
2462.00,99.74
2461.00,99.73
2460.00,99.73
2459.00,99.73
2458.00,99.73
2457.00,99.72
2456.00,99.72
2455.00,99.72
2454.00,99.72
2453.00,99.72
2452.00,99.72
2451.00,99.72
2450.00,99.72
2449.00,99.73
2448.00,99.73
2447.00,99.73
2446.00,99.74
2445.00,99.74
2444.00,99.74
2443.00,99.75
2442.00,99.75
2441.00,99.75
2440.00,99.75
2439.00,99.75
2438.00,99.75
2437.00,99.75
2436.00,99.75
2435.00,99.75
2434.00,99.75
2433.00,99.75
2432.00,99.75
2431.00,99.75
2430.00,99.74
2429.00,99.74
2428.00,99.74
2427.00,99.74
2426.00,99.73
2425.00,99.72
2424.00,99.72
2423.00,99.71
2422.00,99.71
2421.00,99.71
2420.00,99.70
2419.00,99.70
2418.00,99.70
2417.00,99.69
2416.00,99.69
2415.00,99.69
2414.00,99.70
2413.00,99.71
2412.00,99.71
2411.00,99.72
2410.00,99.72
2409.00,99.73
2408.00,99.74
2407.00,99.75
2406.00,99.76
2405.00,99.77
2404.00,99.78
2403.00,99.78
2402.00,99.78
2401.00,99.78
2400.00,99.79
2399.00,99.79
2398.00,99.79
2397.00,99.79
2396.00,99.80
2395.00,99.80
2394.00,99.80
2393.00,99.79
2392.00,99.79
2391.00,99.79
2390.00,99.79
2389.00,99.79
2388.00,99.79
2387.00,99.78
2386.00,99.78
2385.00,99.77
2384.00,99.76
2383.00,99.75
2382.00,99.74
2381.00,99.73
2380.00,99.72
2379.00,99.71
2378.00,99.72
2377.00,99.73
2376.00,99.75
2375.00,99.77
2374.00,99.79
2373.00,99.80
2372.00,99.79
2371.00,99.78
2370.00,99.76
2369.00,99.74
2368.00,99.71
2367.00,99.68
2366.00,99.65
2365.00,99.63
2364.00,99.61
2363.00,99.61
2362.00,99.62
2361.00,99.61
2360.00,99.60
2359.00,99.59
2358.00,99.58
2357.00,99.58
2356.00,99.57
2355.00,99.56
2354.00,99.54
2353.00,99.53
2352.00,99.52
2351.00,99.49
2350.00,99.48
2349.00,99.47
2348.00,99.46
2347.00,99.45
2346.00,99.44
2345.00,99.42
2344.00,99.41
2343.00,99.42
2342.00,99.41
2341.00,99.39
2340.00,99.38
2339.00,99.37
2338.00,99.37
2337.00,99.36
2336.00,99.36
2335.00,99.35
2334.00,99.34
2333.00,99.33
2332.00,99.32
2331.00,99.31
2330.00,99.30
2329.00,99.30
2328.00,99.28
2327.00,99.25
2326.00,99.20
2325.00,99.14
2324.00,99.11
2323.00,99.10
2322.00,99.13
2321.00,99.17
2320.00,99.20
2319.00,99.24
2318.00,99.27
2317.00,99.29
2316.00,99.31
2315.00,99.32
2314.00,99.32
2313.00,99.32
2312.00,99.32
2311.00,99.33
2310.00,99.33
2309.00,99.34
2308.00,99.35
2307.00,99.36
2306.00,99.38
2305.00,99.39
2304.00,99.39
2303.00,99.40
2302.00,99.41
2301.00,99.41
2300.00,99.42
2299.00,99.43
2298.00,99.44
2297.00,99.44
2296.00,99.44
2295.00,99.43
2294.00,99.43
2293.00,99.42
2292.00,99.42
2291.00,99.42
2290.00,99.41
2289.00,99.40
2288.00,99.39
2287.00,99.38
2286.00,99.38
2285.00,99.39
2284.00,99.39
2283.00,99.40
2282.00,99.40
2281.00,99.41
2280.00,99.42
2279.00,99.43
2278.00,99.44
2277.00,99.45
2276.00,99.46
2275.00,99.46
2274.00,99.46
2273.00,99.47
2272.00,99.49
2271.00,99.51
2270.00,99.53
2269.00,99.54
2268.00,99.55
2267.00,99.57
2266.00,99.58
2265.00,99.58
2264.00,99.59
2263.00,99.59
2262.00,99.59
2261.00,99.58
2260.00,99.58
2259.00,99.57
2258.00,99.56
2257.00,99.57
2256.00,99.58
2255.00,99.61
2254.00,99.63
2253.00,99.64
2252.00,99.64
2251.00,99.63
2250.00,99.62
2249.00,99.62
2248.00,99.61
2247.00,99.61
2246.00,99.60
2245.00,99.59
2244.00,99.58
2243.00,99.58
2242.00,99.58
2241.00,99.58
2240.00,99.59
2239.00,99.60
2238.00,99.61
2237.00,99.61
2236.00,99.62
2235.00,99.62
2234.00,99.63
2233.00,99.63
2232.00,99.63
2231.00,99.63
2230.00,99.63
2229.00,99.63
2228.00,99.63
2227.00,99.62
2226.00,99.61
2225.00,99.61
2224.00,99.61
2223.00,99.62
2222.00,99.62
2221.00,99.62
2220.00,99.62
2219.00,99.63
2218.00,99.64
2217.00,99.64
2216.00,99.65
2215.00,99.66
2214.00,99.66
2213.00,99.65
2212.00,99.64
2211.00,99.64
2210.00,99.64
2209.00,99.63
2208.00,99.62
2207.00,99.62
2206.00,99.61
2205.00,99.60
2204.00,99.59
2203.00,99.59
2202.00,99.59
2201.00,99.60
2200.00,99.61
2199.00,99.61
2198.00,99.61
2197.00,99.60
2196.00,99.58
2195.00,99.57
2194.00,99.55
2193.00,99.53
2192.00,99.53
2191.00,99.53
2190.00,99.53
2189.00,99.53
2188.00,99.52
2187.00,99.51
2186.00,99.50
2185.00,99.49
2184.00,99.50
2183.00,99.53
2182.00,99.57
2181.00,99.61
2180.00,99.63
2179.00,99.63
2178.00,99.61
2177.00,99.61
2176.00,99.62
2175.00,99.64
2174.00,99.66
2173.00,99.65
2172.00,99.62
2171.00,99.57
2170.00,99.52
2169.00,99.46
2168.00,99.40
2167.00,99.35
2166.00,99.32
2165.00,99.31
2164.00,99.29
2163.00,99.27
2162.00,99.26
2161.00,99.30
2160.00,99.44
2159.00,99.66
2158.00,99.89
2157.00,100.04
2156.00,100.08
2155.00,100.05
2154.00,100.00
2153.00,99.94
2152.00,99.88
2151.00,99.85
2150.00,99.83
2149.00,99.82
2148.00,99.82
2147.00,99.83
2146.00,99.84
2145.00,99.85
2144.00,99.85
2143.00,99.86
2142.00,99.87
2141.00,99.87
2140.00,99.87
2139.00,99.88
2138.00,99.89
2137.00,99.90
2136.00,99.91
2135.00,99.94
2134.00,99.97
2133.00,99.99
2132.00,100.00
2131.00,99.99
2130.00,99.97
2129.00,99.95
2128.00,99.93
2127.00,99.91
2126.00,99.90
2125.00,99.89
2124.00,99.87
2123.00,99.86
2122.00,99.84
2121.00,99.83
2120.00,99.82
2119.00,99.80
2118.00,99.79
2117.00,99.76
2116.00,99.73
2115.00,99.71
2114.00,99.70
2113.00,99.70
2112.00,99.70
2111.00,99.71
2110.00,99.72
2109.00,99.72
2108.00,99.71
2107.00,99.71
2106.00,99.70
2105.00,99.70
2104.00,99.69
2103.00,99.69
2102.00,99.70
2101.00,99.70
2100.00,99.70
2099.00,99.70
2098.00,99.71
2097.00,99.73
2096.00,99.75
2095.00,99.78
2094.00,99.79
2093.00,99.79
2092.00,99.77
2091.00,99.75
2090.00,99.73
2089.00,99.71
2088.00,99.69
2087.00,99.68
2086.00,99.67
2085.00,99.67
2084.00,99.66
2083.00,99.66
2082.00,99.65
2081.00,99.63
2080.00,99.62
2079.00,99.62
2078.00,99.62
2077.00,99.62
2076.00,99.62
2075.00,99.63
2074.00,99.63
2073.00,99.63
2072.00,99.62
2071.00,99.62
2070.00,99.62
2069.00,99.62
2068.00,99.62
2067.00,99.63
2066.00,99.63
2065.00,99.62
2064.00,99.62
2063.00,99.62
2062.00,99.63
2061.00,99.63
2060.00,99.63
2059.00,99.63
2058.00,99.62
2057.00,99.61
2056.00,99.59
2055.00,99.59
2054.00,99.58
2053.00,99.54
2052.00,99.47
2051.00,99.41
2050.00,99.39
2049.00,99.40
2048.00,99.44
2047.00,99.47
2046.00,99.47
2045.00,99.46
2044.00,99.45
2043.00,99.45
2042.00,99.45
2041.00,99.44
2040.00,99.44
2039.00,99.43
2038.00,99.43
2037.00,99.42
2036.00,99.40
2035.00,99.39
2034.00,99.41
2033.00,99.43
2032.00,99.46
2031.00,99.48
2030.00,99.49
2029.00,99.48
2028.00,99.45
2027.00,99.44
2026.00,99.45
2025.00,99.45
2024.00,99.44
2023.00,99.44
2022.00,99.43
2021.00,99.43
2020.00,99.42
2019.00,99.43
2018.00,99.45
2017.00,99.46
2016.00,99.48
2015.00,99.50
2014.00,99.52
2013.00,99.53
2012.00,99.54
2011.00,99.54
2010.00,99.54
2009.00,99.55
2008.00,99.58
2007.00,99.63
2006.00,99.68
2005.00,99.71
2004.00,99.71
2003.00,99.69
2002.00,99.67
2001.00,99.64
2000.00,99.63
1999.00,99.62
1998.00,99.62
1997.00,99.61
1996.00,99.60
1995.00,99.58
1994.00,99.58
1993.00,99.57
1992.00,99.57
1991.00,99.57
1990.00,99.56
1989.00,99.55
1988.00,99.53
1987.00,99.51
1986.00,99.49
1985.00,99.47
1984.00,99.45
1983.00,99.42
1982.00,99.37
1981.00,99.32
1980.00,99.29
1979.00,99.32
1978.00,99.39
1977.00,99.48
1976.00,99.56
1975.00,99.61
1974.00,99.64
1973.00,99.64
1972.00,99.65
1971.00,99.67
1970.00,99.70
1969.00,99.71
1968.00,99.71
1967.00,99.71
1966.00,99.71
1965.00,99.71
1964.00,99.71
1963.00,99.72
1962.00,99.73
1961.00,99.74
1960.00,99.76
1959.00,99.77
1958.00,99.78
1957.00,99.77
1956.00,99.75
1955.00,99.72
1954.00,99.71
1953.00,99.72
1952.00,99.73
1951.00,99.74
1950.00,99.75
1949.00,99.74
1948.00,99.73
1947.00,99.73
1946.00,99.74
1945.00,99.74
1944.00,99.74
1943.00,99.75
1942.00,99.75
1941.00,99.75
1940.00,99.74
1939.00,99.73
1938.00,99.73
1937.00,99.73
1936.00,99.74
1935.00,99.75
1934.00,99.76
1933.00,99.76
1932.00,99.75
1931.00,99.74
1930.00,99.73
1929.00,99.73
1928.00,99.73
1927.00,99.74
1926.00,99.74
1925.00,99.74
1924.00,99.74
1923.00,99.73
1922.00,99.73
1921.00,99.72
1920.00,99.71
1919.00,99.70
1918.00,99.70
1917.00,99.69
1916.00,99.68
1915.00,99.67
1914.00,99.67
1913.00,99.66
1912.00,99.65
1911.00,99.65
1910.00,99.65
1909.00,99.64
1908.00,99.64
1907.00,99.64
1906.00,99.63
1905.00,99.62
1904.00,99.60
1903.00,99.59
1902.00,99.57
1901.00,99.56
1900.00,99.55
1899.00,99.55
1898.00,99.54
1897.00,99.53
1896.00,99.52
1895.00,99.53
1894.00,99.55
1893.00,99.56
1892.00,99.58
1891.00,99.60
1890.00,99.63
1889.00,99.66
1888.00,99.68
1887.00,99.70
1886.00,99.73
1885.00,99.74
1884.00,99.75
1883.00,99.75
1882.00,99.75
1881.00,99.76
1880.00,99.76
1879.00,99.77
1878.00,99.78
1877.00,99.79
1876.00,99.79
1875.00,99.80
1874.00,99.81
1873.00,99.81
1872.00,99.81
1871.00,99.81
1870.00,99.81
1869.00,99.81
1868.00,99.81
1867.00,99.81
1866.00,99.81
1865.00,99.80
1864.00,99.80
1863.00,99.80
1862.00,99.82
1861.00,99.82
1860.00,99.83
1859.00,99.83
1858.00,99.83
1857.00,99.82
1856.00,99.82
1855.00,99.82
1854.00,99.83
1853.00,99.83
1852.00,99.83
1851.00,99.83
1850.00,99.84
1849.00,99.83
1848.00,99.83
1847.00,99.83
1846.00,99.83
1845.00,99.83
1844.00,99.83
1843.00,99.83
1842.00,99.83
1841.00,99.83
1840.00,99.82
1839.00,99.82
1838.00,99.82
1837.00,99.82
1836.00,99.83
1835.00,99.83
1834.00,99.84
1833.00,99.83
1832.00,99.82
1831.00,99.82
1830.00,99.81
1829.00,99.81
1828.00,99.80
1827.00,99.80
1826.00,99.80
1825.00,99.79
1824.00,99.79
1823.00,99.78
1822.00,99.78
1821.00,99.79
1820.00,99.79
1819.00,99.81
1818.00,99.83
1817.00,99.84
1816.00,99.84
1815.00,99.84
1814.00,99.82
1813.00,99.81
1812.00,99.80
1811.00,99.80
1810.00,99.80
1809.00,99.80
1808.00,99.79
1807.00,99.79
1806.00,99.79
1805.00,99.79
1804.00,99.79
1803.00,99.79
1802.00,99.79
1801.00,99.79
1800.00,99.79
1799.00,99.79
1798.00,99.79
1797.00,99.79
1796.00,99.78
1795.00,99.78
1794.00,99.78
1793.00,99.78
1792.00,99.78
1791.00,99.78
1790.00,99.78
1789.00,99.78
1788.00,99.78
1787.00,99.78
1786.00,99.78
1785.00,99.79
1784.00,99.79
1783.00,99.79
1782.00,99.79
1781.00,99.79
1780.00,99.79
1779.00,99.79
1778.00,99.79
1777.00,99.79
1776.00,99.79
1775.00,99.79
1774.00,99.79
1773.00,99.78
1772.00,99.78
1771.00,99.77
1770.00,99.77
1769.00,99.77
1768.00,99.77
1767.00,99.77
1766.00,99.77
1765.00,99.77
1764.00,99.77
1763.00,99.77
1762.00,99.77
1761.00,99.76
1760.00,99.76
1759.00,99.76
1758.00,99.76
1757.00,99.76
1756.00,99.75
1755.00,99.75
1754.00,99.75
1753.00,99.75
1752.00,99.75
1751.00,99.75
1750.00,99.75
1749.00,99.74
1748.00,99.74
1747.00,99.73
1746.00,99.73
1745.00,99.72
1744.00,99.71
1743.00,99.70
1742.00,99.69
1741.00,99.69
1740.00,99.69
1739.00,99.69
1738.00,99.70
1737.00,99.70
1736.00,99.70
1735.00,99.70
1734.00,99.71
1733.00,99.71
1732.00,99.72
1731.00,99.72
1730.00,99.73
1729.00,99.72
1728.00,99.72
1727.00,99.72
1726.00,99.72
1725.00,99.72
1724.00,99.71
1723.00,99.71
1722.00,99.72
1721.00,99.72
1720.00,99.71
1719.00,99.71
1718.00,99.70
1717.00,99.69
1716.00,99.69
1715.00,99.69
1714.00,99.70
1713.00,99.70
1712.00,99.70
1711.00,99.70
1710.00,99.70
1709.00,99.69
1708.00,99.69
1707.00,99.70
1706.00,99.71
1705.00,99.71
1704.00,99.70
1703.00,99.70
1702.00,99.71
1701.00,99.71
1700.00,99.71
1699.00,99.70
1698.00,99.71
1697.00,99.71
1696.00,99.70
1695.00,99.70
1694.00,99.71
1693.00,99.70
1692.00,99.70
1691.00,99.69
1690.00,99.69
1689.00,99.69
1688.00,99.69
1687.00,99.69
1686.00,99.70
1685.00,99.69
1684.00,99.68
1683.00,99.67
1682.00,99.66
1681.00,99.66
1680.00,99.65
1679.00,99.65
1678.00,99.65
1677.00,99.64
1676.00,99.63
1675.00,99.63
1674.00,99.63
1673.00,99.62
1672.00,99.62
1671.00,99.62
1670.00,99.61
1669.00,99.60
1668.00,99.59
1667.00,99.59
1666.00,99.59
1665.00,99.59
1664.00,99.59
1663.00,99.58
1662.00,99.58
1661.00,99.57
1660.00,99.56
1659.00,99.55
1658.00,99.55
1657.00,99.54
1656.00,99.53
1655.00,99.53
1654.00,99.52
1653.00,99.49
1652.00,99.45
1651.00,99.43
1650.00,99.41
1649.00,99.38
1648.00,99.34
1647.00,99.32
1646.00,99.31
1645.00,99.31
1644.00,99.32
1643.00,99.34
1642.00,99.36
1641.00,99.37
1640.00,99.38
1639.00,99.38
1638.00,99.39
1637.00,99.39
1636.00,99.39
1635.00,99.40
1634.00,99.40
1633.00,99.40
1632.00,99.40
1631.00,99.40
1630.00,99.40
1629.00,99.41
1628.00,99.41
1627.00,99.41
1626.00,99.42
1625.00,99.43
1624.00,99.43
1623.00,99.44
1622.00,99.44
1621.00,99.45
1620.00,99.45
1619.00,99.45
1618.00,99.47
1617.00,99.47
1616.00,99.47
1615.00,99.47
1614.00,99.47
1613.00,99.47
1612.00,99.47
1611.00,99.47
1610.00,99.47
1609.00,99.47
1608.00,99.46
1607.00,99.47
1606.00,99.47
1605.00,99.47
1604.00,99.47
1603.00,99.46
1602.00,99.46
1601.00,99.46
1600.00,99.45
1599.00,99.45
1598.00,99.45
1597.00,99.44
1596.00,99.43
1595.00,99.42
1594.00,99.42
1593.00,99.41
1592.00,99.40
1591.00,99.40
1590.00,99.40
1589.00,99.39
1588.00,99.37
1587.00,99.37
1586.00,99.36
1585.00,99.35
1584.00,99.34
1583.00,99.34
1582.00,99.34
1581.00,99.33
1580.00,99.32
1579.00,99.32
1578.00,99.34
1577.00,99.35
1576.00,99.35
1575.00,99.36
1574.00,99.37
1573.00,99.37
1572.00,99.38
1571.00,99.39
1570.00,99.41
1569.00,99.41
1568.00,99.41
1567.00,99.42
1566.00,99.43
1565.00,99.43
1564.00,99.42
1563.00,99.42
1562.00,99.43
1561.00,99.43
1560.00,99.43
1559.00,99.43
1558.00,99.43
1557.00,99.42
1556.00,99.41
1555.00,99.40
1554.00,99.40
1553.00,99.39
1552.00,99.38
1551.00,99.37
1550.00,99.37
1549.00,99.36
1548.00,99.34
1547.00,99.33
1546.00,99.32
1545.00,99.30
1544.00,99.27
1543.00,99.26
1542.00,99.27
1541.00,99.27
1540.00,99.27
1539.00,99.29
1538.00,99.30
1537.00,99.31
1536.00,99.30
1535.00,99.31
1534.00,99.33
1533.00,99.34
1532.00,99.33
1531.00,99.33
1530.00,99.33
1529.00,99.33
1528.00,99.33
1527.00,99.33
1526.00,99.34
1525.00,99.33
1524.00,99.32
1523.00,99.32
1522.00,99.33
1521.00,99.32
1520.00,99.30
1519.00,99.29
1518.00,99.30
1517.00,99.28
1516.00,99.25
1515.00,99.24
1514.00,99.24
1513.00,99.22
1512.00,99.20
1511.00,99.19
1510.00,99.20
1509.00,99.18
1508.00,99.14
1507.00,99.11
1506.00,99.09
1505.00,99.05
1504.00,99.01
1503.00,99.00
1502.00,98.99
1501.00,98.96
1500.00,98.91
1499.00,98.88
1498.00,98.87
1497.00,98.83
1496.00,98.76
1495.00,98.72
1494.00,98.71
1493.00,98.67
1492.00,98.59
1491.00,98.54
1490.00,98.49
1489.00,98.40
1488.00,98.27
1487.00,98.17
1486.00,98.08
1485.00,97.93
1484.00,97.72
1483.00,97.47
1482.00,97.14
1481.00,96.63
1480.00,95.94
1479.00,94.89
1478.00,92.96
1477.00,89.45
1476.00,84.15
1475.00,77.82
1474.00,72.11
1473.00,69.50
1472.00,71.07
1471.00,74.67
1470.00,77.80
1469.00,79.75
1468.00,80.68
1467.00,80.52
1466.00,78.61
1465.00,74.63
1464.00,70.03
1463.00,67.22
1462.00,67.36
1461.00,70.25
1460.00,75.00
1459.00,80.44
1458.00,85.38
1457.00,88.92
1456.00,90.94
1455.00,92.03
1454.00,92.79
1453.00,93.50
1452.00,94.16
1451.00,94.68
1450.00,95.05
1449.00,95.36
1448.00,95.64
1447.00,95.83
1446.00,95.95
1445.00,96.07
1444.00,96.19
1443.00,96.29
1442.00,96.38
1441.00,96.47
1440.00,96.59
1439.00,96.69
1438.00,96.78
1437.00,96.92
1436.00,97.09
1435.00,97.22
1434.00,97.34
1433.00,97.47
1432.00,97.65
1431.00,97.82
1430.00,97.98
1429.00,98.14
1428.00,98.29
1427.00,98.41
1426.00,98.49
1425.00,98.59
1424.00,98.69
1423.00,98.76
1422.00,98.80
1421.00,98.85
1420.00,98.91
1419.00,98.96
1418.00,98.98
1417.00,99.01
1416.00,99.05
1415.00,99.07
1414.00,99.08
1413.00,99.10
1412.00,99.13
1411.00,99.15
1410.00,99.15
1409.00,99.16
1408.00,99.18
1407.00,99.19
1406.00,99.19
1405.00,99.20
1404.00,99.21
1403.00,99.22
1402.00,99.21
1401.00,99.22
1400.00,99.24
1399.00,99.24
1398.00,99.24
1397.00,99.24
1396.00,99.26
1395.00,99.26
1394.00,99.24
1393.00,99.25
1392.00,99.25
1391.00,99.25
1390.00,99.24
1389.00,99.23
1388.00,99.22
1387.00,99.21
1386.00,99.18
1385.00,99.16
1384.00,99.13
1383.00,99.09
1382.00,99.03
1381.00,98.97
1380.00,98.91
1379.00,98.85
1378.00,98.79
1377.00,98.75
1376.00,98.71
1375.00,98.64
1374.00,98.54
1373.00,98.43
1372.00,98.33
1371.00,98.24
1370.00,98.17
1369.00,98.13
1368.00,98.13
1367.00,98.16
1366.00,98.20
1365.00,98.26
1364.00,98.33
1363.00,98.39
1362.00,98.44
1361.00,98.48
1360.00,98.51
1359.00,98.53
1358.00,98.53
1357.00,98.52
1356.00,98.51
1355.00,98.49
1354.00,98.47
1353.00,98.46
1352.00,98.47
1351.00,98.48
1350.00,98.51
1349.00,98.54
1348.00,98.59
1347.00,98.63
1346.00,98.67
1345.00,98.71
1344.00,98.75
1343.00,98.79
1342.00,98.82
1341.00,98.85
1340.00,98.89
1339.00,98.92
1338.00,98.95
1337.00,98.99
1336.00,99.03
1335.00,99.06
1334.00,99.08
1333.00,99.10
1332.00,99.12
1331.00,99.12
1330.00,99.12
1329.00,99.12
1328.00,99.11
1327.00,99.10
1326.00,99.09
1325.00,99.08
1324.00,99.07
1323.00,99.06
1322.00,99.04
1321.00,99.03
1320.00,99.01
1319.00,98.98
1318.00,98.95
1317.00,98.92
1316.00,98.90
1315.00,98.88
1314.00,98.85
1313.00,98.82
1312.00,98.80
1311.00,98.77
1310.00,98.75
1309.00,98.73
1308.00,98.73
1307.00,98.72
1306.00,98.72
1305.00,98.72
1304.00,98.72
1303.00,98.73
1302.00,98.73
1301.00,98.74
1300.00,98.75
1299.00,98.76
1298.00,98.77
1297.00,98.79
1296.00,98.82
1295.00,98.85
1294.00,98.88
1293.00,98.90
1292.00,98.93
1291.00,98.96
1290.00,98.98
1289.00,99.00
1288.00,99.02
1287.00,99.04
1286.00,99.05
1285.00,99.06
1284.00,99.07
1283.00,99.09
1282.00,99.09
1281.00,99.10
1280.00,99.11
1279.00,99.11
1278.00,99.12
1277.00,99.12
1276.00,99.14
1275.00,99.14
1274.00,99.14
1273.00,99.15
1272.00,99.16
1271.00,99.16
1270.00,99.17
1269.00,99.17
1268.00,99.19
1267.00,99.20
1266.00,99.21
1265.00,99.21
1264.00,99.22
1263.00,99.23
1262.00,99.23
1261.00,99.25
1260.00,99.26
1259.00,99.27
1258.00,99.28
1257.00,99.30
1256.00,99.32
1255.00,99.34
1254.00,99.35
1253.00,99.37
1252.00,99.38
1251.00,99.40
1250.00,99.41
1249.00,99.43
1248.00,99.45
1247.00,99.47
1246.00,99.49
1245.00,99.51
1244.00,99.53
1243.00,99.55
1242.00,99.56
1241.00,99.57
1240.00,99.58
1239.00,99.58
1238.00,99.58
1237.00,99.58
1236.00,99.59
1235.00,99.59
1234.00,99.59
1233.00,99.58
1232.00,99.58
1231.00,99.58
1230.00,99.57
1229.00,99.58
1228.00,99.59
1227.00,99.59
1226.00,99.58
1225.00,99.58
1224.00,99.58
1223.00,99.58
1222.00,99.57
1221.00,99.57
1220.00,99.57
1219.00,99.57
1218.00,99.56
1217.00,99.55
1216.00,99.55
1215.00,99.55
1214.00,99.54
1213.00,99.54
1212.00,99.54
1211.00,99.52
1210.00,99.51
1209.00,99.50
1208.00,99.51
1207.00,99.51
1206.00,99.51
1205.00,99.51
1204.00,99.51
1203.00,99.51
1202.00,99.50
1201.00,99.49
1200.00,99.49
1199.00,99.49
1198.00,99.48
1197.00,99.48
1196.00,99.49
1195.00,99.49
1194.00,99.48
1193.00,99.47
1192.00,99.47
1191.00,99.46
1190.00,99.45
1189.00,99.45
1188.00,99.46
1187.00,99.46
1186.00,99.45
1185.00,99.45
1184.00,99.45
1183.00,99.44
1182.00,99.43
1181.00,99.41
1180.00,99.40
1179.00,99.38
1178.00,99.36
1177.00,99.35
1176.00,99.36
1175.00,99.37
1174.00,99.38
1173.00,99.39
1172.00,99.39
1171.00,99.39
1170.00,99.38
1169.00,99.38
1168.00,99.38
1167.00,99.38
1166.00,99.38
1165.00,99.38
1164.00,99.38
1163.00,99.38
1162.00,99.37
1161.00,99.37
1160.00,99.38
1159.00,99.38
1158.00,99.38
1157.00,99.38
1156.00,99.39
1155.00,99.39
1154.00,99.39
1153.00,99.38
1152.00,99.38
1151.00,99.38
1150.00,99.38
1149.00,99.38
1148.00,99.40
1147.00,99.40
1146.00,99.40
1145.00,99.40
1144.00,99.40
1143.00,99.40
1142.00,99.39
1141.00,99.39
1140.00,99.39
1139.00,99.39
1138.00,99.39
1137.00,99.39
1136.00,99.39
1135.00,99.38
1134.00,99.37
1133.00,99.36
1132.00,99.36
1131.00,99.36
1130.00,99.36
1129.00,99.36
1128.00,99.36
1127.00,99.36
1126.00,99.36
1125.00,99.36
1124.00,99.36
1123.00,99.37
1122.00,99.36
1121.00,99.36
1120.00,99.36
1119.00,99.36
1118.00,99.36
1117.00,99.36
1116.00,99.37
1115.00,99.37
1114.00,99.36
1113.00,99.36
1112.00,99.36
1111.00,99.36
1110.00,99.36
1109.00,99.36
1108.00,99.36
1107.00,99.36
1106.00,99.35
1105.00,99.35
1104.00,99.36
1103.00,99.36
1102.00,99.36
1101.00,99.36
1100.00,99.36
1099.00,99.36
1098.00,99.35
1097.00,99.34
1096.00,99.33
1095.00,99.32
1094.00,99.30
1093.00,99.29
1092.00,99.28
1091.00,99.26
1090.00,99.25
1089.00,99.23
1088.00,99.23
1087.00,99.22
1086.00,99.20
1085.00,99.19
1084.00,99.19
1083.00,99.18
1082.00,99.18
1081.00,99.18
1080.00,99.18
1079.00,99.18
1078.00,99.18
1077.00,99.19
1076.00,99.20
1075.00,99.22
1074.00,99.23
1073.00,99.24
1072.00,99.27
1071.00,99.28
1070.00,99.29
1069.00,99.29
1068.00,99.29
1067.00,99.28
1066.00,99.27
1065.00,99.27
1064.00,99.28
1063.00,99.29
1062.00,99.29
1061.00,99.29
1060.00,99.30
1059.00,99.31
1058.00,99.32
1057.00,99.33
1056.00,99.34
1055.00,99.33
1054.00,99.32
1053.00,99.30
1052.00,99.30
1051.00,99.30
1050.00,99.31
1049.00,99.33
1048.00,99.37
1047.00,99.39
1046.00,99.40
1045.00,99.41
1044.00,99.42
1043.00,99.42
1042.00,99.43
1041.00,99.43
1040.00,99.44
1039.00,99.45
1038.00,99.45
1037.00,99.45
1036.00,99.45
1035.00,99.46
1034.00,99.45
1033.00,99.46
1032.00,99.46
1031.00,99.46
1030.00,99.46
1029.00,99.46
1028.00,99.46
1027.00,99.47
1026.00,99.47
1025.00,99.47
1024.00,99.47
1023.00,99.47
1022.00,99.47
1021.00,99.47
1020.00,99.48
1019.00,99.49
1018.00,99.49
1017.00,99.50
1016.00,99.51
1015.00,99.51
1014.00,99.51
1013.00,99.51
1012.00,99.51
1011.00,99.51
1010.00,99.50
1009.00,99.49
1008.00,99.49
1007.00,99.50
1006.00,99.50
1005.00,99.51
1004.00,99.52
1003.00,99.53
1002.00,99.52
1001.00,99.53
1000.00,99.53
999.00,99.54
998.00,99.54
997.00,99.53
996.00,99.52
995.00,99.52
994.00,99.51
993.00,99.51
992.00,99.51
991.00,99.51
990.00,99.51
989.00,99.52
988.00,99.53
987.00,99.53
986.00,99.53
985.00,99.53
984.00,99.53
983.00,99.53
982.00,99.53
981.00,99.54
980.00,99.55
979.00,99.56
978.00,99.56
977.00,99.56
976.00,99.57
975.00,99.56
974.00,99.56
973.00,99.55
972.00,99.55
971.00,99.55
970.00,99.54
969.00,99.54
968.00,99.54
967.00,99.54
966.00,99.53
965.00,99.53
964.00,99.53
963.00,99.54
962.00,99.54
961.00,99.54
960.00,99.54
959.00,99.54
958.00,99.54
957.00,99.53
956.00,99.53
955.00,99.53
954.00,99.53
953.00,99.53
952.00,99.54
951.00,99.54
950.00,99.54
949.00,99.54
948.00,99.55
947.00,99.55
946.00,99.55
945.00,99.55
944.00,99.56
943.00,99.56
942.00,99.55
941.00,99.54
940.00,99.54
939.00,99.55
938.00,99.54
937.00,99.53
936.00,99.52
935.00,99.52
934.00,99.52
933.00,99.53
932.00,99.54
931.00,99.56
930.00,99.56
929.00,99.57
928.00,99.57
927.00,99.56
926.00,99.55
925.00,99.55
924.00,99.55
923.00,99.55
922.00,99.55
921.00,99.55
920.00,99.54
919.00,99.54
918.00,99.52
917.00,99.51
916.00,99.50
915.00,99.50
914.00,99.49
913.00,99.47
912.00,99.46
911.00,99.43
910.00,99.41
909.00,99.39
908.00,99.40
907.00,99.41
906.00,99.43
905.00,99.45
904.00,99.46
903.00,99.48
902.00,99.48
901.00,99.49
900.00,99.50
899.00,99.51
898.00,99.51
897.00,99.51
896.00,99.51
895.00,99.50
894.00,99.49
893.00,99.47
892.00,99.47
891.00,99.46
890.00,99.45
889.00,99.44
888.00,99.44
887.00,99.45
886.00,99.45
885.00,99.46
884.00,99.47
883.00,99.48
882.00,99.47
881.00,99.48
880.00,99.49
879.00,99.51
878.00,99.51
877.00,99.50
876.00,99.48
875.00,99.47
874.00,99.46
873.00,99.46
872.00,99.46
871.00,99.46
870.00,99.45
869.00,99.45
868.00,99.46
867.00,99.48
866.00,99.48
865.00,99.48
864.00,99.47
863.00,99.46
862.00,99.45
861.00,99.44
860.00,99.43
859.00,99.43
858.00,99.43
857.00,99.43
856.00,99.43
855.00,99.43
854.00,99.44
853.00,99.44
852.00,99.44
851.00,99.44
850.00,99.44
849.00,99.43
848.00,99.43
847.00,99.43
846.00,99.42
845.00,99.41
844.00,99.41
843.00,99.40
842.00,99.40
841.00,99.40
840.00,99.40
839.00,99.40
838.00,99.39
837.00,99.38
836.00,99.37
835.00,99.36
834.00,99.36
833.00,99.36
832.00,99.37
831.00,99.37
830.00,99.38
829.00,99.39
828.00,99.39
827.00,99.39
826.00,99.37
825.00,99.35
824.00,99.35
823.00,99.36
822.00,99.35
821.00,99.35
820.00,99.34
819.00,99.33
818.00,99.32
817.00,99.30
816.00,99.29
815.00,99.29
814.00,99.29
813.00,99.28
812.00,99.28
811.00,99.28
810.00,99.27
809.00,99.25
808.00,99.25
807.00,99.26
806.00,99.26
805.00,99.25
804.00,99.25
803.00,99.25
802.00,99.25
801.00,99.24
800.00,99.24
799.00,99.24
798.00,99.23
797.00,99.21
796.00,99.20
795.00,99.21
794.00,99.22
793.00,99.22
792.00,99.22
791.00,99.23
790.00,99.23
789.00,99.21
788.00,99.21
787.00,99.20
786.00,99.20
785.00,99.19
784.00,99.18
783.00,99.18
782.00,99.17
781.00,99.17
780.00,99.16
779.00,99.15
778.00,99.12
777.00,99.09
776.00,99.07
775.00,99.07
774.00,99.06
773.00,99.04
772.00,99.02
771.00,99.00
770.00,98.99
769.00,98.98
768.00,98.97
767.00,98.98
766.00,98.97
765.00,98.95
764.00,98.92
763.00,98.90
762.00,98.88
761.00,98.85
760.00,98.84
759.00,98.83
758.00,98.81
757.00,98.75
756.00,98.70
755.00,98.66
754.00,98.62
753.00,98.57
752.00,98.53
751.00,98.50
750.00,98.46
749.00,98.38
748.00,98.29
747.00,98.20
746.00,98.09
745.00,97.96
744.00,97.82
743.00,97.69
742.00,97.51
741.00,97.26
740.00,96.94
739.00,96.54
738.00,95.96
737.00,95.05
736.00,93.54
735.00,90.93
734.00,86.69
733.00,81.04
732.00,75.42
731.00,71.99
730.00,72.04
729.00,75.03
728.00,79.05
727.00,82.31
726.00,83.95
725.00,83.95
724.00,82.36
723.00,78.94
722.00,73.52
721.00,66.90
720.00,61.21
719.00,58.84
718.00,60.61
717.00,65.35
716.00,71.18
715.00,76.65
714.00,81.13
713.00,84.56
712.00,87.10
711.00,88.97
710.00,90.40
709.00,91.56
708.00,92.50
707.00,93.26
706.00,93.88
705.00,94.45
704.00,94.93
703.00,95.31
702.00,95.63
701.00,95.93
700.00,96.19
699.00,96.41
698.00,96.60
697.00,96.79
696.00,96.94
695.00,97.05
694.00,97.16
693.00,97.29
692.00,97.40
691.00,97.46
690.00,97.49
689.00,97.54
688.00,97.59
687.00,97.61
686.00,97.64
685.00,97.69
684.00,97.77
683.00,97.81
682.00,97.84
681.00,97.88
680.00,97.93
679.00,97.95
678.00,97.96
677.00,98.00
676.00,98.05
675.00,98.09
674.00,98.12
673.00,98.16
672.00,98.21
671.00,98.24
670.00,98.26
669.00,98.33
668.00,98.40
667.00,98.42
666.00,98.39
665.00,98.36
664.00,98.34
663.00,98.30
662.00,98.27
661.00,98.27
660.00,98.30
659.00,98.32
658.00,98.31
657.00,98.32
656.00,98.35
655.00,98.37
654.00,98.39
653.00,98.43
652.00,98.46
651.00,98.45
650.00,98.41
