Created as New Dataset,PE (high density) granule 5mm GF
cm-1,%T
4000.00,99.29
3999.00,99.29
3998.00,99.28
3997.00,99.28
3996.00,99.28
3995.00,99.28
3994.00,99.29
3993.00,99.29
3992.00,99.29
3991.00,99.28
3990.00,99.28
3989.00,99.28
3988.00,99.28
3987.00,99.28
3986.00,99.27
3985.00,99.27
3984.00,99.27
3983.00,99.27
3982.00,99.27
3981.00,99.27
3980.00,99.27
3979.00,99.27
3978.00,99.27
3977.00,99.27
3976.00,99.27
3975.00,99.27
3974.00,99.27
3973.00,99.28
3972.00,99.27
3971.00,99.27
3970.00,99.27
3969.00,99.27
3968.00,99.27
3967.00,99.27
3966.00,99.27
3965.00,99.27
3964.00,99.28
3963.00,99.28
3962.00,99.28
3961.00,99.28
3960.00,99.28
3959.00,99.28
3958.00,99.28
3957.00,99.28
3956.00,99.28
3955.00,99.27
3954.00,99.27
3953.00,99.27
3952.00,99.27
3951.00,99.27
3950.00,99.27
3949.00,99.27
3948.00,99.27
3947.00,99.27
3946.00,99.27
3945.00,99.27
3944.00,99.27
3943.00,99.27
3942.00,99.27
3941.00,99.27
3940.00,99.27
3939.00,99.27
3938.00,99.27
3937.00,99.27
3936.00,99.26
3935.00,99.26
3934.00,99.26
3933.00,99.26
3932.00,99.26
3931.00,99.26
3930.00,99.26
3929.00,99.26
3928.00,99.26
3927.00,99.26
3926.00,99.26
3925.00,99.26
3924.00,99.25
3923.00,99.25
3922.00,99.25
3921.00,99.25
3920.00,99.25
3919.00,99.25
3918.00,99.25
3917.00,99.25
3916.00,99.25
3915.00,99.25
3914.00,99.25
3913.00,99.25
3912.00,99.25
3911.00,99.25
3910.00,99.25
3909.00,99.25
3908.00,99.25
3907.00,99.25
3906.00,99.25
3905.00,99.25
3904.00,99.25
3903.00,99.25
3902.00,99.25
3901.00,99.24
3900.00,99.24
3899.00,99.24
3898.00,99.24
3897.00,99.24
3896.00,99.24
3895.00,99.24
3894.00,99.24
3893.00,99.24
3892.00,99.24
3891.00,99.24
3890.00,99.24
3889.00,99.24
3888.00,99.24
3887.00,99.24
3886.00,99.24
3885.00,99.24
3884.00,99.24
3883.00,99.24
3882.00,99.24
3881.00,99.24
3880.00,99.24
3879.00,99.24
3878.00,99.24
3877.00,99.24
3876.00,99.24
3875.00,99.24
3874.00,99.24
3873.00,99.24
3872.00,99.25
3871.00,99.24
3870.00,99.24
3869.00,99.24
3868.00,99.24
3867.00,99.24
3866.00,99.24
3865.00,99.24
3864.00,99.24
3863.00,99.24
3862.00,99.24
3861.00,99.24
3860.00,99.24
3859.00,99.24
3858.00,99.24
3857.00,99.24
3856.00,99.25
3855.00,99.25
3854.00,99.26
3853.00,99.25
3852.00,99.26
3851.00,99.26
3850.00,99.26
3849.00,99.25
3848.00,99.25
3847.00,99.25
3846.00,99.25
3845.00,99.25
3844.00,99.25
3843.00,99.25
3842.00,99.25
3841.00,99.25
3840.00,99.25
3839.00,99.24
3838.00,99.24
3837.00,99.24
3836.00,99.24
3835.00,99.24
3834.00,99.24
3833.00,99.23
3832.00,99.23
3831.00,99.23
3830.00,99.24
3829.00,99.24
3828.00,99.24
3827.00,99.23
3826.00,99.23
3825.00,99.23
3824.00,99.23
3823.00,99.23
3822.00,99.23
3821.00,99.23
3820.00,99.23
3819.00,99.23
3818.00,99.23
3817.00,99.23
3816.00,99.23
3815.00,99.23
3814.00,99.24
3813.00,99.24
3812.00,99.24
3811.00,99.24
3810.00,99.24
3809.00,99.24
3808.00,99.24
3807.00,99.24
3806.00,99.24
3805.00,99.24
3804.00,99.24
3803.00,99.24
3802.00,99.23
3801.00,99.24
3800.00,99.24
3799.00,99.24
3798.00,99.24
3797.00,99.24
3796.00,99.24
3795.00,99.25
3794.00,99.25
3793.00,99.25
3792.00,99.25
3791.00,99.25
3790.00,99.25
3789.00,99.25
3788.00,99.25
3787.00,99.24
3786.00,99.24
3785.00,99.24
3784.00,99.24
3783.00,99.24
3782.00,99.24
3781.00,99.24
3780.00,99.24
3779.00,99.24
3778.00,99.24
3777.00,99.24
3776.00,99.24
3775.00,99.24
3774.00,99.24
3773.00,99.24
3772.00,99.24
3771.00,99.24
3770.00,99.24
3769.00,99.24
3768.00,99.24
3767.00,99.24
3766.00,99.24
3765.00,99.24
3764.00,99.24
3763.00,99.24
3762.00,99.23
3761.00,99.23
3760.00,99.23
3759.00,99.23
3758.00,99.23
3757.00,99.23
3756.00,99.23
3755.00,99.23
3754.00,99.23
3753.00,99.23
3752.00,99.23
3751.00,99.23
3750.00,99.23
3749.00,99.23
3748.00,99.23
3747.00,99.23
3746.00,99.23
3745.00,99.23
3744.00,99.23
3743.00,99.23
3742.00,99.23
3741.00,99.23
3740.00,99.23
3739.00,99.24
3738.00,99.24
3737.00,99.24
3736.00,99.25
3735.00,99.24
3734.00,99.24
3733.00,99.24
3732.00,99.24
3731.00,99.24
3730.00,99.24
3729.00,99.24
3728.00,99.25
3727.00,99.25
3726.00,99.25
3725.00,99.24
3724.00,99.24
3723.00,99.23
3722.00,99.23
3721.00,99.24
3720.00,99.24
3719.00,99.24
3718.00,99.24
3717.00,99.23
3716.00,99.23
3715.00,99.23
3714.00,99.23
3713.00,99.23
3712.00,99.23
3711.00,99.23
3710.00,99.22
3709.00,99.23
3708.00,99.23
3707.00,99.23
3706.00,99.23
3705.00,99.23
3704.00,99.23
3703.00,99.23
3702.00,99.23
3701.00,99.23
3700.00,99.24
3699.00,99.24
3698.00,99.24
3697.00,99.24
3696.00,99.24
3695.00,99.24
3694.00,99.24
3693.00,99.23
3692.00,99.23
3691.00,99.23
3690.00,99.22
3689.00,99.23
3688.00,99.23
3687.00,99.23
3686.00,99.24
3685.00,99.24
3684.00,99.23
3683.00,99.23
3682.00,99.23
3681.00,99.23
3680.00,99.22
3679.00,99.22
3678.00,99.22
3677.00,99.22
3676.00,99.22
3675.00,99.22
3674.00,99.22
3673.00,99.23
3672.00,99.22
3671.00,99.22
3670.00,99.22
3669.00,99.22
3668.00,99.22
3667.00,99.22
3666.00,99.22
3665.00,99.23
3664.00,99.23
3663.00,99.23
3662.00,99.22
3661.00,99.22
3660.00,99.22
3659.00,99.22
3658.00,99.22
3657.00,99.21
3656.00,99.21
3655.00,99.21
3654.00,99.20
3653.00,99.20
3652.00,99.19
3651.00,99.19
3650.00,99.19
3649.00,99.19
3648.00,99.19
3647.00,99.18
3646.00,99.19
3645.00,99.19
3644.00,99.19
3643.00,99.20
3642.00,99.20
3641.00,99.20
3640.00,99.20
3639.00,99.21
3638.00,99.21
3637.00,99.21
3636.00,99.21
3635.00,99.22
3634.00,99.22
3633.00,99.22
3632.00,99.22
3631.00,99.22
3630.00,99.21
3629.00,99.21
3628.00,99.21
3627.00,99.21
3626.00,99.22
3625.00,99.21
3624.00,99.21
3623.00,99.21
3622.00,99.21
3621.00,99.21
3620.00,99.21
3619.00,99.20
3618.00,99.19
3617.00,99.19
3616.00,99.18
3615.00,99.17
3614.00,99.17
3613.00,99.16
3612.00,99.15
3611.00,99.14
3610.00,99.14
3609.00,99.13
3608.00,99.13
3607.00,99.12
3606.00,99.12
3605.00,99.12
3604.00,99.12
3603.00,99.13
3602.00,99.14
3601.00,99.15
3600.00,99.16
3599.00,99.17
3598.00,99.18
3597.00,99.19
3596.00,99.20
3595.00,99.20
3594.00,99.21
3593.00,99.22
3592.00,99.23
3591.00,99.23
3590.00,99.24
3589.00,99.24
3588.00,99.25
3587.00,99.25
3586.00,99.25
3585.00,99.25
3584.00,99.24
3583.00,99.25
3582.00,99.25
3581.00,99.26
3580.00,99.26
3579.00,99.26
3578.00,99.26
3577.00,99.26
3576.00,99.26
3575.00,99.26
3574.00,99.26
3573.00,99.26
3572.00,99.26
3571.00,99.26
3570.00,99.26
3569.00,99.26
3568.00,99.26
3567.00,99.26
3566.00,99.27
3565.00,99.27
3564.00,99.27
3563.00,99.27
3562.00,99.27
3561.00,99.27
3560.00,99.27
3559.00,99.27
3558.00,99.26
3557.00,99.27
3556.00,99.27
3555.00,99.27
3554.00,99.28
3553.00,99.28
3552.00,99.27
3551.00,99.27
3550.00,99.27
3549.00,99.27
3548.00,99.27
3547.00,99.27
3546.00,99.28
3545.00,99.27
3544.00,99.27
3543.00,99.26
3542.00,99.26
3541.00,99.26
3540.00,99.26
3539.00,99.26
3538.00,99.27
3537.00,99.27
3536.00,99.27
3535.00,99.27
3534.00,99.27
3533.00,99.27
3532.00,99.27
3531.00,99.27
3530.00,99.27
3529.00,99.26
3528.00,99.26
3527.00,99.27
3526.00,99.27
3525.00,99.27
3524.00,99.28
3523.00,99.27
3522.00,99.27
3521.00,99.27
3520.00,99.27
3519.00,99.27
3518.00,99.27
3517.00,99.27
3516.00,99.27
3515.00,99.26
3514.00,99.26
3513.00,99.26
3512.00,99.26
3511.00,99.27
3510.00,99.27
3509.00,99.27
3508.00,99.27
3507.00,99.27
3506.00,99.26
3505.00,99.26
3504.00,99.25
3503.00,99.25
3502.00,99.26
3501.00,99.26
3500.00,99.26
3499.00,99.26
3498.00,99.27
3497.00,99.27
3496.00,99.27
3495.00,99.26
3494.00,99.26
3493.00,99.26
3492.00,99.26
3491.00,99.26
3490.00,99.26
3489.00,99.26
3488.00,99.26
3487.00,99.27
3486.00,99.27
3485.00,99.27
3484.00,99.27
3483.00,99.27
3482.00,99.26
3481.00,99.26
3480.00,99.26
3479.00,99.26
3478.00,99.26
3477.00,99.26
3476.00,99.26
3475.00,99.26
3474.00,99.26
3473.00,99.26
3472.00,99.26
3471.00,99.26
3470.00,99.26
3469.00,99.26
3468.00,99.26
3467.00,99.26
3466.00,99.25
3465.00,99.25
3464.00,99.25
3463.00,99.25
3462.00,99.25
3461.00,99.25
3460.00,99.25
3459.00,99.25
3458.00,99.25
3457.00,99.25
3456.00,99.25
3455.00,99.25
3454.00,99.25
3453.00,99.25
3452.00,99.25
3451.00,99.25
3450.00,99.25
3449.00,99.25
3448.00,99.24
3447.00,99.24
3446.00,99.24
3445.00,99.24
3444.00,99.24
3443.00,99.25
3442.00,99.25
3441.00,99.24
3440.00,99.24
3439.00,99.24
3438.00,99.24
3437.00,99.24
3436.00,99.24
3435.00,99.24
3434.00,99.24
3433.00,99.24
3432.00,99.24
3431.00,99.24
3430.00,99.25
3429.00,99.25
3428.00,99.25
3427.00,99.24
3426.00,99.24
3425.00,99.24
3424.00,99.25
3423.00,99.25
3422.00,99.25
3421.00,99.25
3420.00,99.25
3419.00,99.26
3418.00,99.26
3417.00,99.25
3416.00,99.25
3415.00,99.25
3414.00,99.24
3413.00,99.25
3412.00,99.25
3411.00,99.25
3410.00,99.25
3409.00,99.25
3408.00,99.25
3407.00,99.25
3406.00,99.25
3405.00,99.25
3404.00,99.25
3403.00,99.25
3402.00,99.25
3401.00,99.25
3400.00,99.24
3399.00,99.24
3398.00,99.24
3397.00,99.24
3396.00,99.24
3395.00,99.24
3394.00,99.24
3393.00,99.24
3392.00,99.25
3391.00,99.25
3390.00,99.25
3389.00,99.24
3388.00,99.24
3387.00,99.24
3386.00,99.23
3385.00,99.23
3384.00,99.23
3383.00,99.23
3382.00,99.24
3381.00,99.24
3380.00,99.23
3379.00,99.23
3378.00,99.23
3377.00,99.23
3376.00,99.23
3375.00,99.23
3374.00,99.23
3373.00,99.23
3372.00,99.23
3371.00,99.23
3370.00,99.23
3369.00,99.23
3368.00,99.23
3367.00,99.23
3366.00,99.24
3365.00,99.24
3364.00,99.24
3363.00,99.24
3362.00,99.24
3361.00,99.24
3360.00,99.24
3359.00,99.25
3358.00,99.25
3357.00,99.25
3356.00,99.24
3355.00,99.24
3354.00,99.24
3353.00,99.24
3352.00,99.24
3351.00,99.25
3350.00,99.25
3349.00,99.24
3348.00,99.24
3347.00,99.24
3346.00,99.24
3345.00,99.24
3344.00,99.24
3343.00,99.24
3342.00,99.24
3341.00,99.24
3340.00,99.25
3339.00,99.25
3338.00,99.25
3337.00,99.25
3336.00,99.25
3335.00,99.24
3334.00,99.24
3333.00,99.24
3332.00,99.24
3331.00,99.25
3330.00,99.25
3329.00,99.25
3328.00,99.25
3327.00,99.25
3326.00,99.25
3325.00,99.24
3324.00,99.25
3323.00,99.25
3322.00,99.25
3321.00,99.25
3320.00,99.25
3319.00,99.25
3318.00,99.25
3317.00,99.26
3316.00,99.26
3315.00,99.26
3314.00,99.26
3313.00,99.26
3312.00,99.26
3311.00,99.26
3310.00,99.26
3309.00,99.25
3308.00,99.25
3307.00,99.25
3306.00,99.25
3305.00,99.25
3304.00,99.25
3303.00,99.26
3302.00,99.26
3301.00,99.26
3300.00,99.26
3299.00,99.25
3298.00,99.25
3297.00,99.25
3296.00,99.25
3295.00,99.25
3294.00,99.25
3293.00,99.25
3292.00,99.25
3291.00,99.25
3290.00,99.25
3289.00,99.25
3288.00,99.25
3287.00,99.25
3286.00,99.25
3285.00,99.25
3284.00,99.25
3283.00,99.25
3282.00,99.25
3281.00,99.25
3280.00,99.25
3279.00,99.25
3278.00,99.25
3277.00,99.26
3276.00,99.26
3275.00,99.26
3274.00,99.26
3273.00,99.26
3272.00,99.26
3271.00,99.26
3270.00,99.26
3269.00,99.26
3268.00,99.26
3267.00,99.26
3266.00,99.26
3265.00,99.26
3264.00,99.26
3263.00,99.26
3262.00,99.26
3261.00,99.26
3260.00,99.26
3259.00,99.26
3258.00,99.26
3257.00,99.26
3256.00,99.27
3255.00,99.27
3254.00,99.27
3253.00,99.27
3252.00,99.27
3251.00,99.26
3250.00,99.26
3249.00,99.26
3248.00,99.26
3247.00,99.26
3246.00,99.26
3245.00,99.26
3244.00,99.26
3243.00,99.27
3242.00,99.27
3241.00,99.27
3240.00,99.27
3239.00,99.27
3238.00,99.26
3237.00,99.26
3236.00,99.26
3235.00,99.27
3234.00,99.27
3233.00,99.27
3232.00,99.27
3231.00,99.26
3230.00,99.26
3229.00,99.26
3228.00,99.26
3227.00,99.27
3226.00,99.27
3225.00,99.27
3224.00,99.27
3223.00,99.27
3222.00,99.27
3221.00,99.27
3220.00,99.27
3219.00,99.27
3218.00,99.27
3217.00,99.27
3216.00,99.27
3215.00,99.27
3214.00,99.27
3213.00,99.28
3212.00,99.28
3211.00,99.28
3210.00,99.28
3209.00,99.27
3208.00,99.27
3207.00,99.27
3206.00,99.27
3205.00,99.27
3204.00,99.27
3203.00,99.27
3202.00,99.28
3201.00,99.28
3200.00,99.28
3199.00,99.28
3198.00,99.28
3197.00,99.28
3196.00,99.27
3195.00,99.27
3194.00,99.27
3193.00,99.28
3192.00,99.28
3191.00,99.28
3190.00,99.28
3189.00,99.28
3188.00,99.27
3187.00,99.28
3186.00,99.28
3185.00,99.28
3184.00,99.28
3183.00,99.28
3182.00,99.28
3181.00,99.28
3180.00,99.28
3179.00,99.28
3178.00,99.28
3177.00,99.28
3176.00,99.28
3175.00,99.28
3174.00,99.28
3173.00,99.28
3172.00,99.28
3171.00,99.28
3170.00,99.28
3169.00,99.28
3168.00,99.28
3167.00,99.28
3166.00,99.28
3165.00,99.28
3164.00,99.28
3163.00,99.28
3162.00,99.28
3161.00,99.28
3160.00,99.28
3159.00,99.28
3158.00,99.28
3157.00,99.28
3156.00,99.27
3155.00,99.27
3154.00,99.27
3153.00,99.27
3152.00,99.28
3151.00,99.28
3150.00,99.28
3149.00,99.28
3148.00,99.28
3147.00,99.28
3146.00,99.28
3145.00,99.28
3144.00,99.28
3143.00,99.28
3142.00,99.28
3141.00,99.28
3140.00,99.28
3139.00,99.28
3138.00,99.28
3137.00,99.28
3136.00,99.28
3135.00,99.28
3134.00,99.28
3133.00,99.28
3132.00,99.28
3131.00,99.27
3130.00,99.27
3129.00,99.27
3128.00,99.28
3127.00,99.27
3126.00,99.27
3125.00,99.27
3124.00,99.27
3123.00,99.26
3122.00,99.26
3121.00,99.26
3120.00,99.26
3119.00,99.26
3118.00,99.26
3117.00,99.25
3116.00,99.25
3115.00,99.24
3114.00,99.24
3113.00,99.24
3112.00,99.24
3111.00,99.23
3110.00,99.23
3109.00,99.22
3108.00,99.22
3107.00,99.21
3106.00,99.21
3105.00,99.20
3104.00,99.19
3103.00,99.18
3102.00,99.18
3101.00,99.17
3100.00,99.17
3099.00,99.16
3098.00,99.15
3097.00,99.14
3096.00,99.13
3095.00,99.12
3094.00,99.11
3093.00,99.10
3092.00,99.10
3091.00,99.09
3090.00,99.08
3089.00,99.08
3088.00,99.08
3087.00,99.07
3086.00,99.06
3085.00,99.06
3084.00,99.06
3083.00,99.05
3082.00,99.05
3081.00,99.05
3080.00,99.05
3079.00,99.05
3078.00,99.04
3077.00,99.04
3076.00,99.04
3075.00,99.04
3074.00,99.04
3073.00,99.04
3072.00,99.03
3071.00,99.03
3070.00,99.03
3069.00,99.02
3068.00,99.02
3067.00,99.02
3066.00,99.02
3065.00,99.02
3064.00,99.02
3063.00,99.01
3062.00,99.01
3061.00,99.01
3060.00,99.00
3059.00,99.00
3058.00,98.99
3057.00,98.99
3056.00,98.99
3055.00,98.98
3054.00,98.97
3053.00,98.97
3052.00,98.96
3051.00,98.95
3050.00,98.95
3049.00,98.95
3048.00,98.94
3047.00,98.93
3046.00,98.92
3045.00,98.91
3044.00,98.90
3043.00,98.90
3042.00,98.89
3041.00,98.88
3040.00,98.88
3039.00,98.87
3038.00,98.87
3037.00,98.86
3036.00,98.85
3035.00,98.85
3034.00,98.84
3033.00,98.84
3032.00,98.83
3031.00,98.83
3030.00,98.82
3029.00,98.82
3028.00,98.82
3027.00,98.81
3026.00,98.81
3025.00,98.81
3024.00,98.81
3023.00,98.81
3022.00,98.81
3021.00,98.80
3020.00,98.80
3019.00,98.80
3018.00,98.79
3017.00,98.79
3016.00,98.79
3015.00,98.78
3014.00,98.78
3013.00,98.77
3012.00,98.76
3011.00,98.76
3010.00,98.75
3009.00,98.75
3008.00,98.74
3007.00,98.73
3006.00,98.73
3005.00,98.72
3004.00,98.71
3003.00,98.70
3002.00,98.69
3001.00,98.68
3000.00,98.67
2999.00,98.66
2998.00,98.65
2997.00,98.64
2996.00,98.63
2995.00,98.62
2994.00,98.60
2993.00,98.59
2992.00,98.58
2991.00,98.56
2990.00,98.55
2989.00,98.54
2988.00,98.52
2987.00,98.50
2986.00,98.48
2985.00,98.45
2984.00,98.42
2983.00,98.39
2982.00,98.36
2981.00,98.33
2980.00,98.31
2979.00,98.29
2978.00,98.26
2977.00,98.23
2976.00,98.19
2975.00,98.16
2974.00,98.12
2973.00,98.08
2972.00,98.03
2971.00,97.99
2970.00,97.94
2969.00,97.90
2968.00,97.85
2967.00,97.79
2966.00,97.73
2965.00,97.67
2964.00,97.59
2963.00,97.51
2962.00,97.43
2961.00,97.34
2960.00,97.25
2959.00,97.15
2958.00,97.04
2957.00,96.93
2956.00,96.81
2955.00,96.68
2954.00,96.53
2953.00,96.37
2952.00,96.20
2951.00,96.01
2950.00,95.80
2949.00,95.56
2948.00,95.28
2947.00,94.96
2946.00,94.59
2945.00,94.18
2944.00,93.71
2943.00,93.19
2942.00,92.60
2941.00,91.97
2940.00,91.27
2939.00,90.50
2938.00,89.67
2937.00,88.77
2936.00,87.79
2935.00,86.72
2934.00,85.57
2933.00,84.32
2932.00,82.97
2931.00,81.52
2930.00,79.94
2929.00,78.23
2928.00,76.36
2927.00,74.31
2926.00,72.05
2925.00,69.57
2924.00,66.86
2923.00,63.96
2922.00,60.89
2921.00,57.73
2920.00,54.57
2919.00,51.54
2918.00,48.87
2917.00,46.81
2916.00,45.62
2915.00,45.43
2914.00,46.24
2913.00,47.87
2912.00,50.06
2911.00,52.53
2910.00,55.03
2909.00,57.41
2908.00,59.60
2907.00,61.55
2906.00,63.27
2905.00,64.76
2904.00,66.05
2903.00,67.18
2902.00,68.17
2901.00,69.06
2900.00,69.87
2899.00,70.63
2898.00,71.36
2897.00,72.07
2896.00,72.77
2895.00,73.48
2894.00,74.20
2893.00,74.93
2892.00,75.67
2891.00,76.42
2890.00,77.19
2889.00,77.97
2888.00,78.76
2887.00,79.57
2886.00,80.38
2885.00,81.21
2884.00,82.04
2883.00,82.88
2882.00,83.73
2881.00,84.59
2880.00,85.44
2879.00,86.27
2878.00,87.07
2877.00,87.82
2876.00,88.50
2875.00,89.10
2874.00,89.61
2873.00,90.02
2872.00,90.35
2871.00,90.58
2870.00,90.71
2869.00,90.75
2868.00,90.69
2867.00,90.53
2866.00,90.25
2865.00,89.85
2864.00,89.32
2863.00,88.62
2862.00,87.73
2861.00,86.63
2860.00,85.28
2859.00,83.65
2858.00,81.68
2857.00,79.32
2856.00,76.51
2855.00,73.21
2854.00,69.40
2853.00,65.13
2852.00,60.59
2851.00,56.11
2850.00,52.25
2849.00,49.58
2848.00,48.55
2847.00,49.32
2846.00,51.66
2845.00,55.13
2844.00,59.17
2843.00,63.33
2842.00,67.27
2841.00,70.83
2840.00,73.92
2839.00,76.58
2838.00,78.83
2837.00,80.75
2836.00,82.39
2835.00,83.79
2834.00,84.99
2833.00,86.03
2832.00,86.94
2831.00,87.74
2830.00,88.45
2829.00,89.09
2828.00,89.66
2827.00,90.18
2826.00,90.65
2825.00,91.07
2824.00,91.46
2823.00,91.81
2822.00,92.13
2821.00,92.43
2820.00,92.70
2819.00,92.96
2818.00,93.20
2817.00,93.42
2816.00,93.63
2815.00,93.82
2814.00,94.00
2813.00,94.17
2812.00,94.33
2811.00,94.48
2810.00,94.63
2809.00,94.77
2808.00,94.90
2807.00,95.03
2806.00,95.14
2805.00,95.25
2804.00,95.36
2803.00,95.46
2802.00,95.56
2801.00,95.66
2800.00,95.75
2799.00,95.83
2798.00,95.92
2797.00,96.00
2796.00,96.08
2795.00,96.16
2794.00,96.23
2793.00,96.31
2792.00,96.39
2791.00,96.46
2790.00,96.54
2789.00,96.61
2788.00,96.68
2787.00,96.75
2786.00,96.82
2785.00,96.88
2784.00,96.94
2783.00,97.00
2782.00,97.06
2781.00,97.11
2780.00,97.16
2779.00,97.20
2778.00,97.25
2777.00,97.29
2776.00,97.33
2775.00,97.37
2774.00,97.40
2773.00,97.44
2772.00,97.47
2771.00,97.50
2770.00,97.52
2769.00,97.55
2768.00,97.58
2767.00,97.60
2766.00,97.62
2765.00,97.64
2764.00,97.66
2763.00,97.68
2762.00,97.70
2761.00,97.72
2760.00,97.74
2759.00,97.76
2758.00,97.78
2757.00,97.79
2756.00,97.81
2755.00,97.82
2754.00,97.84
2753.00,97.85
2752.00,97.86
2751.00,97.87
2750.00,97.88
2749.00,97.89
2748.00,97.89
2747.00,97.89
2746.00,97.89
2745.00,97.89
2744.00,97.89
2743.00,97.90
2742.00,97.90
2741.00,97.91
2740.00,97.92
2739.00,97.92
2738.00,97.93
2737.00,97.94
2736.00,97.95
2735.00,97.96
2734.00,97.97
2733.00,97.98
2732.00,97.99
2731.00,98.01
2730.00,98.02
2729.00,98.04
2728.00,98.05
2727.00,98.06
2726.00,98.06
2725.00,98.07
2724.00,98.08
2723.00,98.10
2722.00,98.11
2721.00,98.12
2720.00,98.13
2719.00,98.13
2718.00,98.14
2717.00,98.15
2716.00,98.15
2715.00,98.16
2714.00,98.17
2713.00,98.17
2712.00,98.18
2711.00,98.19
2710.00,98.19
2709.00,98.20
2708.00,98.21
2707.00,98.22
2706.00,98.22
2705.00,98.23
2704.00,98.23
2703.00,98.24
2702.00,98.25
2701.00,98.26
2700.00,98.27
2699.00,98.28
2698.00,98.28
2697.00,98.29
2696.00,98.29
2695.00,98.30
2694.00,98.30
2693.00,98.30
2692.00,98.30
2691.00,98.30
2690.00,98.30
2689.00,98.30
2688.00,98.30
2687.00,98.29
2686.00,98.29
2685.00,98.28
2684.00,98.28
2683.00,98.28
2682.00,98.28
2681.00,98.28
2680.00,98.27
2679.00,98.26
2678.00,98.25
2677.00,98.25
2676.00,98.24
2675.00,98.23
2674.00,98.22
2673.00,98.21
2672.00,98.19
2671.00,98.18
2670.00,98.17
2669.00,98.16
2668.00,98.15
2667.00,98.13
2666.00,98.12
2665.00,98.11
2664.00,98.09
2663.00,98.08
2662.00,98.07
2661.00,98.06
2660.00,98.06
2659.00,98.05
2658.00,98.05
2657.00,98.05
2656.00,98.05
2655.00,98.05
2654.00,98.05
2653.00,98.05
2652.00,98.05
2651.00,98.05
2650.00,98.05
2649.00,98.05
2648.00,98.05
2647.00,98.05
2646.00,98.05
2645.00,98.04
2644.00,98.03
2643.00,98.02
2642.00,98.01
2641.00,98.00
2640.00,98.00
2639.00,97.99
2638.00,97.98
2637.00,97.97
2636.00,97.97
2635.00,97.97
2634.00,97.97
2633.00,97.98
2632.00,97.99
2631.00,98.01
2630.00,98.02
2629.00,98.04
2628.00,98.06
2627.00,98.08
2626.00,98.10
2625.00,98.11
2624.00,98.13
2623.00,98.15
2622.00,98.16
2621.00,98.18
2620.00,98.19
2619.00,98.20
2618.00,98.22
2617.00,98.23
2616.00,98.24
2615.00,98.25
2614.00,98.27
2613.00,98.28
2612.00,98.28
2611.00,98.29
2610.00,98.30
2609.00,98.31
2608.00,98.33
2607.00,98.34
2606.00,98.35
2605.00,98.36
2604.00,98.36
2603.00,98.37
2602.00,98.37
2601.00,98.38
2600.00,98.39
2599.00,98.40
2598.00,98.41
2597.00,98.41
2596.00,98.42
2595.00,98.43
2594.00,98.43
2593.00,98.44
2592.00,98.45
2591.00,98.46
2590.00,98.47
2589.00,98.47
2588.00,98.48
2587.00,98.48
2586.00,98.49
2585.00,98.50
2584.00,98.50
2583.00,98.51
2582.00,98.52
2581.00,98.53
2580.00,98.53
2579.00,98.54
2578.00,98.55
2577.00,98.55
2576.00,98.56
2575.00,98.56
2574.00,98.57
2573.00,98.57
2572.00,98.57
2571.00,98.57
2570.00,98.57
2569.00,98.58
2568.00,98.58
2567.00,98.59
2566.00,98.59
2565.00,98.60
2564.00,98.60
2563.00,98.60
2562.00,98.61
2561.00,98.61
2560.00,98.61
2559.00,98.62
2558.00,98.63
2557.00,98.63
2556.00,98.63
2555.00,98.63
2554.00,98.63
2553.00,98.63
2552.00,98.63
2551.00,98.63
2550.00,98.63
2549.00,98.64
2548.00,98.64
2547.00,98.65
2546.00,98.66
2545.00,98.67
2544.00,98.68
2543.00,98.69
2542.00,98.70
2541.00,98.70
2540.00,98.71
2539.00,98.71
2538.00,98.72
2537.00,98.72
2536.00,98.72
2535.00,98.72
2534.00,98.72
2533.00,98.72
2532.00,98.71
2531.00,98.71
2530.00,98.70
2529.00,98.70
2528.00,98.71
2527.00,98.71
2526.00,98.72
2525.00,98.72
2524.00,98.73
2523.00,98.73
2522.00,98.74
2521.00,98.74
2520.00,98.75
2519.00,98.75
2518.00,98.75
2517.00,98.76
2516.00,98.76
2515.00,98.77
2514.00,98.77
2513.00,98.78
2512.00,98.78
2511.00,98.78
2510.00,98.78
2509.00,98.78
2508.00,98.78
2507.00,98.78
2506.00,98.78
2505.00,98.78
2504.00,98.78
2503.00,98.78
2502.00,98.78
2501.00,98.78
2500.00,98.78
2499.00,98.78
2498.00,98.78
2497.00,98.78
2496.00,98.79
2495.00,98.79
2494.00,98.79
2493.00,98.80
2492.00,98.80
2491.00,98.81
2490.00,98.81
2489.00,98.81
2488.00,98.81
2487.00,98.81
2486.00,98.82
2485.00,98.82
2484.00,98.81
2483.00,98.80
2482.00,98.80
2481.00,98.79
2480.00,98.80
2479.00,98.80
2478.00,98.80
2477.00,98.80
2476.00,98.80
2475.00,98.80
2474.00,98.80
2473.00,98.80
2472.00,98.80
2471.00,98.81
2470.00,98.81
2469.00,98.82
2468.00,98.83
2467.00,98.84
2466.00,98.84
2465.00,98.85
2464.00,98.85
2463.00,98.85
2462.00,98.85
2461.00,98.85
2460.00,98.84
2459.00,98.84
2458.00,98.84
2457.00,98.83
2456.00,98.83
2455.00,98.82
2454.00,98.83
2453.00,98.83
2452.00,98.82
2451.00,98.83
2450.00,98.83
2449.00,98.83
2448.00,98.83
2447.00,98.83
2446.00,98.83
2445.00,98.84
2444.00,98.84
2443.00,98.85
2442.00,98.85
2441.00,98.85
2440.00,98.85
2439.00,98.85
2438.00,98.85
2437.00,98.85
2436.00,98.85
2435.00,98.85
2434.00,98.85
2433.00,98.85
2432.00,98.85
2431.00,98.85
2430.00,98.85
2429.00,98.85
2428.00,98.85
2427.00,98.85
2426.00,98.84
2425.00,98.84
2424.00,98.84
2423.00,98.84
2422.00,98.84
2421.00,98.83
2420.00,98.83
2419.00,98.82
2418.00,98.82
2417.00,98.82
2416.00,98.82
2415.00,98.82
2414.00,98.83
2413.00,98.84
2412.00,98.84
2411.00,98.84
2410.00,98.85
2409.00,98.86
2408.00,98.86
2407.00,98.87
2406.00,98.88
2405.00,98.88
2404.00,98.88
2403.00,98.88
2402.00,98.88
2401.00,98.88
2400.00,98.89
2399.00,98.89
2398.00,98.89
2397.00,98.89
2396.00,98.89
2395.00,98.89
2394.00,98.89
2393.00,98.90
2392.00,98.90
2391.00,98.90
2390.00,98.90
2389.00,98.90
2388.00,98.89
2387.00,98.89
2386.00,98.89
2385.00,98.89
2384.00,98.89
2383.00,98.89
2382.00,98.89
2381.00,98.88
2380.00,98.88
2379.00,98.88
2378.00,98.88
2377.00,98.89
2376.00,98.91
2375.00,98.91
2374.00,98.92
2373.00,98.91
2372.00,98.89
2371.00,98.87
2370.00,98.86
2369.00,98.85
2368.00,98.85
2367.00,98.85
2366.00,98.85
2365.00,98.84
2364.00,98.84
2363.00,98.83
2362.00,98.81
2361.00,98.78
2360.00,98.76
2359.00,98.75
2358.00,98.76
2357.00,98.78
2356.00,98.79
2355.00,98.79
2354.00,98.78
2353.00,98.76
2352.00,98.75
2351.00,98.74
2350.00,98.74
2349.00,98.73
2348.00,98.72
2347.00,98.71
2346.00,98.70
2345.00,98.69
2344.00,98.69
2343.00,98.68
2342.00,98.66
2341.00,98.64
2340.00,98.62
2339.00,98.62
2338.00,98.62
2337.00,98.63
2336.00,98.63
2335.00,98.63
2334.00,98.62
2333.00,98.61
2332.00,98.61
2331.00,98.60
2330.00,98.60
2329.00,98.59
2328.00,98.58
2327.00,98.55
2326.00,98.51
2325.00,98.46
2324.00,98.42
2323.00,98.41
2322.00,98.43
2321.00,98.45
2320.00,98.48
2319.00,98.50
2318.00,98.52
2317.00,98.54
2316.00,98.55
2315.00,98.56
2314.00,98.57
2313.00,98.57
2312.00,98.57
2311.00,98.58
2310.00,98.58
2309.00,98.59
2308.00,98.59
2307.00,98.60
2306.00,98.61
2305.00,98.61
2304.00,98.61
2303.00,98.62
2302.00,98.62
2301.00,98.63
2300.00,98.63
2299.00,98.63
2298.00,98.63
2297.00,98.62
2296.00,98.62
2295.00,98.61
2294.00,98.61
2293.00,98.60
2292.00,98.60
2291.00,98.59
2290.00,98.59
2289.00,98.58
2288.00,98.57
2287.00,98.56
2286.00,98.55
2285.00,98.55
2284.00,98.55
2283.00,98.56
2282.00,98.57
2281.00,98.59
2280.00,98.59
2279.00,98.59
2278.00,98.59
2277.00,98.59
2276.00,98.59
2275.00,98.60
2274.00,98.60
2273.00,98.61
2272.00,98.61
2271.00,98.62
2270.00,98.63
2269.00,98.64
2268.00,98.65
2267.00,98.66
2266.00,98.67
2265.00,98.68
2264.00,98.68
2263.00,98.68
2262.00,98.68
2261.00,98.68
2260.00,98.67
2259.00,98.66
2258.00,98.66
2257.00,98.65
2256.00,98.65
2255.00,98.66
2254.00,98.67
2253.00,98.67
2252.00,98.68
2251.00,98.68
2250.00,98.67
2249.00,98.67
2248.00,98.67
2247.00,98.67
2246.00,98.67
2245.00,98.67
2244.00,98.66
2243.00,98.65
2242.00,98.64
2241.00,98.63
2240.00,98.63
2239.00,98.64
2238.00,98.65
2237.00,98.66
2236.00,98.66
2235.00,98.66
2234.00,98.66
2233.00,98.66
2232.00,98.66
2231.00,98.67
2230.00,98.67
2229.00,98.67
2228.00,98.67
2227.00,98.67
2226.00,98.67
2225.00,98.67
2224.00,98.67
2223.00,98.68
2222.00,98.67
2221.00,98.66
2220.00,98.65
2219.00,98.65
2218.00,98.65
2217.00,98.65
2216.00,98.65
2215.00,98.66
2214.00,98.66
2213.00,98.67
2212.00,98.67
2211.00,98.68
2210.00,98.69
2209.00,98.68
2208.00,98.68
2207.00,98.67
2206.00,98.67
2205.00,98.66
2204.00,98.66
2203.00,98.65
2202.00,98.64
2201.00,98.63
2200.00,98.63
2199.00,98.64
2198.00,98.63
2197.00,98.62
2196.00,98.60
2195.00,98.60
2194.00,98.59
2193.00,98.58
2192.00,98.58
2191.00,98.57
2190.00,98.57
2189.00,98.57
2188.00,98.55
2187.00,98.54
2186.00,98.53
2185.00,98.53
2184.00,98.54
2183.00,98.57
2182.00,98.61
2181.00,98.64
2180.00,98.64
2179.00,98.62
2178.00,98.60
2177.00,98.59
2176.00,98.60
2175.00,98.62
2174.00,98.63
2173.00,98.62
2172.00,98.59
2171.00,98.56
2170.00,98.52
2169.00,98.48
2168.00,98.45
2167.00,98.42
2166.00,98.41
2165.00,98.40
2164.00,98.37
2163.00,98.33
2162.00,98.30
2161.00,98.32
2160.00,98.43
2159.00,98.60
2158.00,98.78
2157.00,98.90
2156.00,98.94
2155.00,98.92
2154.00,98.89
2153.00,98.85
2152.00,98.82
2151.00,98.80
2150.00,98.79
2149.00,98.80
2148.00,98.80
2147.00,98.81
2146.00,98.82
2145.00,98.82
2144.00,98.83
2143.00,98.83
2142.00,98.83
2141.00,98.83
2140.00,98.82
2139.00,98.82
2138.00,98.83
2137.00,98.84
2136.00,98.86
2135.00,98.91
2134.00,98.95
2133.00,98.98
2132.00,98.99
2131.00,98.97
2130.00,98.95
2129.00,98.93
2128.00,98.92
2127.00,98.90
2126.00,98.89
2125.00,98.86
2124.00,98.84
2123.00,98.83
2122.00,98.82
2121.00,98.81
2120.00,98.80
2119.00,98.78
2118.00,98.77
2117.00,98.76
2116.00,98.75
2115.00,98.74
2114.00,98.73
2113.00,98.72
2112.00,98.71
2111.00,98.72
2110.00,98.73
2109.00,98.73
2108.00,98.73
2107.00,98.73
2106.00,98.73
2105.00,98.73
2104.00,98.72
2103.00,98.72
2102.00,98.72
2101.00,98.72
2100.00,98.72
2099.00,98.72
2098.00,98.72
2097.00,98.73
2096.00,98.74
2095.00,98.76
2094.00,98.78
2093.00,98.78
2092.00,98.77
2091.00,98.75
2090.00,98.73
2089.00,98.71
2088.00,98.70
2087.00,98.70
2086.00,98.70
2085.00,98.69
2084.00,98.68
2083.00,98.67
2082.00,98.66
2081.00,98.65
2080.00,98.65
2079.00,98.64
2078.00,98.64
2077.00,98.64
2076.00,98.64
2075.00,98.64
2074.00,98.64
2073.00,98.64
2072.00,98.64
2071.00,98.64
2070.00,98.63
2069.00,98.63
2068.00,98.64
2067.00,98.64
2066.00,98.65
2065.00,98.65
2064.00,98.65
2063.00,98.65
2062.00,98.65
2061.00,98.64
2060.00,98.64
2059.00,98.63
2058.00,98.62
2057.00,98.60
2056.00,98.59
2055.00,98.58
2054.00,98.57
2053.00,98.54
2052.00,98.48
2051.00,98.43
2050.00,98.41
2049.00,98.43
2048.00,98.46
2047.00,98.48
2046.00,98.49
2045.00,98.49
2044.00,98.49
2043.00,98.49
2042.00,98.48
2041.00,98.47
2040.00,98.45
2039.00,98.42
2038.00,98.40
2037.00,98.38
2036.00,98.38
2035.00,98.39
2034.00,98.40
2033.00,98.42
2032.00,98.45
2031.00,98.47
2030.00,98.47
2029.00,98.46
2028.00,98.44
2027.00,98.44
2026.00,98.44
2025.00,98.45
2024.00,98.44
2023.00,98.44
2022.00,98.44
2021.00,98.44
2020.00,98.45
2019.00,98.45
2018.00,98.45
2017.00,98.44
2016.00,98.43
2015.00,98.43
2014.00,98.44
2013.00,98.45
2012.00,98.46
2011.00,98.48
2010.00,98.49
2009.00,98.51
2008.00,98.54
2007.00,98.58
2006.00,98.63
2005.00,98.66
2004.00,98.66
2003.00,98.66
2002.00,98.64
2001.00,98.61
2000.00,98.60
1999.00,98.59
1998.00,98.60
1997.00,98.59
1996.00,98.57
1995.00,98.56
1994.00,98.55
1993.00,98.55
1992.00,98.54
1991.00,98.55
1990.00,98.55
1989.00,98.54
1988.00,98.52
1987.00,98.51
1986.00,98.49
1985.00,98.46
1984.00,98.43
1983.00,98.40
1982.00,98.37
1981.00,98.35
1980.00,98.34
1979.00,98.37
1978.00,98.43
1977.00,98.49
1976.00,98.55
1975.00,98.59
1974.00,98.61
1973.00,98.63
1972.00,98.64
1971.00,98.65
1970.00,98.66
1969.00,98.66
1968.00,98.65
1967.00,98.64
1966.00,98.64
1965.00,98.65
1964.00,98.66
1963.00,98.67
1962.00,98.68
1961.00,98.70
1960.00,98.72
1959.00,98.75
1958.00,98.76
1957.00,98.75
1956.00,98.73
1955.00,98.71
1954.00,98.71
1953.00,98.70
1952.00,98.70
1951.00,98.70
1950.00,98.69
1949.00,98.68
1948.00,98.68
1947.00,98.69
1946.00,98.72
1945.00,98.73
1944.00,98.74
1943.00,98.74
1942.00,98.73
1941.00,98.72
1940.00,98.72
1939.00,98.72
1938.00,98.72
1937.00,98.71
1936.00,98.71
1935.00,98.72
1934.00,98.73
1933.00,98.73
1932.00,98.73
1931.00,98.74
1930.00,98.74
1929.00,98.75
1928.00,98.75
1927.00,98.75
1926.00,98.76
1925.00,98.76
1924.00,98.75
1923.00,98.75
1922.00,98.75
1921.00,98.74
1920.00,98.73
1919.00,98.71
1918.00,98.70
1917.00,98.68
1916.00,98.67
1915.00,98.67
1914.00,98.67
1913.00,98.68
1912.00,98.68
1911.00,98.68
1910.00,98.68
1909.00,98.67
1908.00,98.66
1907.00,98.66
1906.00,98.66
1905.00,98.66
1904.00,98.65
1903.00,98.64
1902.00,98.63
1901.00,98.62
1900.00,98.61
1899.00,98.61
1898.00,98.61
1897.00,98.61
1896.00,98.61
1895.00,98.62
1894.00,98.63
1893.00,98.64
1892.00,98.65
1891.00,98.66
1890.00,98.67
1889.00,98.68
1888.00,98.69
1887.00,98.70
1886.00,98.72
1885.00,98.73
1884.00,98.74
1883.00,98.75
1882.00,98.75
1881.00,98.76
1880.00,98.76
1879.00,98.76
1878.00,98.76
1877.00,98.76
1876.00,98.75
1875.00,98.76
1874.00,98.77
1873.00,98.77
1872.00,98.78
1871.00,98.78
1870.00,98.78
1869.00,98.78
1868.00,98.78
1867.00,98.78
1866.00,98.79
1865.00,98.79
1864.00,98.79
1863.00,98.79
1862.00,98.80
1861.00,98.79
1860.00,98.79
1859.00,98.79
1858.00,98.79
1857.00,98.79
1856.00,98.78
1855.00,98.78
1854.00,98.79
1853.00,98.80
1852.00,98.80
1851.00,98.81
1850.00,98.81
1849.00,98.81
1848.00,98.81
1847.00,98.81
1846.00,98.81
1845.00,98.81
1844.00,98.80
1843.00,98.81
1842.00,98.81
1841.00,98.81
1840.00,98.81
1839.00,98.81
1838.00,98.81
1837.00,98.81
1836.00,98.81
1835.00,98.80
1834.00,98.80
1833.00,98.79
1832.00,98.78
1831.00,98.78
1830.00,98.78
1829.00,98.78
1828.00,98.78
1827.00,98.78
1826.00,98.77
1825.00,98.77
1824.00,98.76
1823.00,98.75
1822.00,98.75
1821.00,98.76
1820.00,98.76
1819.00,98.78
1818.00,98.79
1817.00,98.80
1816.00,98.80
1815.00,98.79
1814.00,98.79
1813.00,98.78
1812.00,98.78
1811.00,98.78
1810.00,98.79
1809.00,98.79
1808.00,98.78
1807.00,98.78
1806.00,98.78
1805.00,98.78
1804.00,98.78
1803.00,98.77
1802.00,98.77
1801.00,98.77
1800.00,98.77
1799.00,98.76
1798.00,98.77
1797.00,98.77
1796.00,98.77
1795.00,98.77
1794.00,98.78
1793.00,98.77
1792.00,98.77
1791.00,98.77
1790.00,98.77
1789.00,98.77
1788.00,98.77
1787.00,98.77
1786.00,98.78
1785.00,98.78
1784.00,98.77
1783.00,98.77
1782.00,98.77
1781.00,98.77
1780.00,98.77
1779.00,98.78
1778.00,98.78
1777.00,98.79
1776.00,98.78
1775.00,98.78
1774.00,98.78
1773.00,98.78
1772.00,98.77
1771.00,98.77
1770.00,98.77
1769.00,98.77
1768.00,98.77
1767.00,98.77
1766.00,98.76
1765.00,98.76
1764.00,98.76
1763.00,98.76
1762.00,98.76
1761.00,98.75
1760.00,98.75
1759.00,98.75
1758.00,98.75
1757.00,98.75
1756.00,98.75
1755.00,98.75
1754.00,98.75
1753.00,98.75
1752.00,98.74
1751.00,98.74
1750.00,98.74
1749.00,98.74
1748.00,98.73
1747.00,98.72
1746.00,98.71
1745.00,98.71
1744.00,98.70
1743.00,98.70
1742.00,98.71
1741.00,98.71
1740.00,98.71
1739.00,98.71
1738.00,98.72
1737.00,98.72
1736.00,98.71
1735.00,98.72
1734.00,98.72
1733.00,98.73
1732.00,98.73
1731.00,98.73
1730.00,98.72
1729.00,98.72
1728.00,98.72
1727.00,98.72
1726.00,98.72
1725.00,98.72
1724.00,98.72
1723.00,98.72
1722.00,98.72
1721.00,98.71
1720.00,98.71
1719.00,98.71
1718.00,98.72
1717.00,98.72
1716.00,98.72
1715.00,98.72
1714.00,98.72
1713.00,98.72
1712.00,98.72
1711.00,98.73
1710.00,98.73
1709.00,98.73
1708.00,98.72
1707.00,98.72
1706.00,98.73
1705.00,98.73
1704.00,98.72
1703.00,98.72
1702.00,98.72
1701.00,98.72
1700.00,98.71
1699.00,98.71
1698.00,98.71
1697.00,98.71
1696.00,98.71
1695.00,98.71
1694.00,98.72
1693.00,98.71
1692.00,98.71
1691.00,98.70
1690.00,98.70
1689.00,98.70
1688.00,98.70
1687.00,98.70
1686.00,98.70
1685.00,98.69
1684.00,98.68
1683.00,98.68
1682.00,98.69
1681.00,98.69
1680.00,98.68
1679.00,98.68
1678.00,98.68
1677.00,98.68
1676.00,98.68
1675.00,98.67
1674.00,98.67
1673.00,98.67
1672.00,98.67
1671.00,98.67
1670.00,98.67
1669.00,98.67
1668.00,98.66
1667.00,98.66
1666.00,98.66
1665.00,98.65
1664.00,98.65
1663.00,98.65
1662.00,98.65
1661.00,98.65
1660.00,98.65
1659.00,98.64
1658.00,98.64
1657.00,98.64
1656.00,98.63
1655.00,98.62
1654.00,98.62
1653.00,98.62
1652.00,98.61
1651.00,98.61
1650.00,98.61
1649.00,98.61
1648.00,98.60
1647.00,98.58
1646.00,98.57
1645.00,98.55
1644.00,98.53
1643.00,98.52
1642.00,98.52
1641.00,98.52
1640.00,98.52
1639.00,98.53
1638.00,98.54
1637.00,98.55
1636.00,98.55
1635.00,98.56
1634.00,98.57
1633.00,98.57
1632.00,98.57
1631.00,98.57
1630.00,98.57
1629.00,98.57
1628.00,98.57
1627.00,98.57
1626.00,98.57
1625.00,98.57
1624.00,98.57
1623.00,98.57
1622.00,98.57
1621.00,98.57
1620.00,98.57
1619.00,98.58
1618.00,98.58
1617.00,98.58
1616.00,98.58
1615.00,98.58
1614.00,98.58
1613.00,98.58
1612.00,98.57
1611.00,98.57
1610.00,98.57
1609.00,98.57
1608.00,98.57
1607.00,98.57
1606.00,98.58
1605.00,98.58
1604.00,98.58
1603.00,98.58
1602.00,98.58
1601.00,98.57
1600.00,98.57
1599.00,98.56
1598.00,98.56
1597.00,98.56
1596.00,98.55
1595.00,98.55
1594.00,98.55
1593.00,98.55
1592.00,98.54
1591.00,98.54
1590.00,98.54
1589.00,98.54
1588.00,98.54
1587.00,98.53
1586.00,98.54
1585.00,98.53
1584.00,98.53
1583.00,98.53
1582.00,98.54
1581.00,98.54
1580.00,98.54
1579.00,98.54
1578.00,98.55
1577.00,98.55
1576.00,98.55
1575.00,98.55
1574.00,98.56
1573.00,98.56
1572.00,98.55
1571.00,98.55
1570.00,98.56
1569.00,98.56
1568.00,98.56
1567.00,98.56
1566.00,98.56
1565.00,98.56
1564.00,98.56
1563.00,98.56
1562.00,98.56
1561.00,98.56
1560.00,98.55
1559.00,98.55
1558.00,98.55
1557.00,98.55
1556.00,98.54
1555.00,98.54
1554.00,98.54
1553.00,98.54
1552.00,98.53
1551.00,98.53
1550.00,98.54
1549.00,98.53
1548.00,98.53
1547.00,98.53
1546.00,98.54
1545.00,98.54
1544.00,98.53
1543.00,98.53
1542.00,98.53
1541.00,98.53
1540.00,98.51
1539.00,98.51
1538.00,98.52
1537.00,98.51
1536.00,98.50
1535.00,98.50
1534.00,98.50
1533.00,98.50
1532.00,98.49
1531.00,98.49
1530.00,98.50
1529.00,98.50
1528.00,98.49
1527.00,98.49
1526.00,98.50
1525.00,98.49
1524.00,98.48
1523.00,98.48
1522.00,98.48
1521.00,98.47
1520.00,98.46
1519.00,98.45
1518.00,98.46
1517.00,98.44
1516.00,98.43
1515.00,98.42
1514.00,98.43
1513.00,98.42
1512.00,98.40
1511.00,98.39
1510.00,98.40
1509.00,98.38
1508.00,98.35
1507.00,98.34
1506.00,98.34
1505.00,98.32
1504.00,98.29
1503.00,98.28
1502.00,98.28
1501.00,98.26
1500.00,98.23
1499.00,98.21
1498.00,98.20
1497.00,98.17
1496.00,98.12
1495.00,98.11
1494.00,98.11
1493.00,98.09
1492.00,98.04
1491.00,98.01
1490.00,97.99
1489.00,97.94
1488.00,97.86
1487.00,97.81
1486.00,97.76
1485.00,97.68
1484.00,97.55
1483.00,97.41
1482.00,97.22
1481.00,96.93
1480.00,96.51
1479.00,95.87
1478.00,94.67
1477.00,92.44
1476.00,89.02
1475.00,84.85
1474.00,80.97
1473.00,78.96
1472.00,79.60
1471.00,81.58
1470.00,83.32
1469.00,84.35
1468.00,84.81
1467.00,84.66
1466.00,83.50
1465.00,81.06
1464.00,78.26
1463.00,76.60
1462.00,76.83
1461.00,78.80
1460.00,81.93
1459.00,85.45
1458.00,88.61
1457.00,90.87
1456.00,92.18
1455.00,92.91
1454.00,93.43
1453.00,93.93
1452.00,94.39
1451.00,94.76
1450.00,95.03
1449.00,95.24
1448.00,95.43
1447.00,95.56
1446.00,95.64
1445.00,95.71
1444.00,95.80
1443.00,95.87
1442.00,95.92
1441.00,95.99
1440.00,96.07
1439.00,96.15
1438.00,96.23
1437.00,96.33
1436.00,96.45
1435.00,96.56
1434.00,96.64
1433.00,96.75
1432.00,96.89
1431.00,97.02
1430.00,97.15
1429.00,97.29
1428.00,97.42
1427.00,97.52
1426.00,97.60
1425.00,97.69
1424.00,97.78
1423.00,97.84
1422.00,97.88
1421.00,97.91
1420.00,97.96
1419.00,98.00
1418.00,98.02
1417.00,98.04
1416.00,98.06
1415.00,98.07
1414.00,98.08
1413.00,98.09
1412.00,98.12
1411.00,98.13
1410.00,98.14
1409.00,98.15
1408.00,98.16
1407.00,98.16
1406.00,98.16
1405.00,98.17
1404.00,98.18
1403.00,98.18
1402.00,98.18
1401.00,98.18
1400.00,98.19
1399.00,98.19
1398.00,98.19
1397.00,98.19
1396.00,98.19
1395.00,98.19
1394.00,98.18
1393.00,98.18
1392.00,98.19
1391.00,98.19
1390.00,98.18
1389.00,98.18
1388.00,98.19
1387.00,98.18
1386.00,98.17
1385.00,98.16
1384.00,98.14
1383.00,98.12
1382.00,98.09
1381.00,98.05
1380.00,98.02
1379.00,97.98
1378.00,97.93
1377.00,97.89
1376.00,97.84
1375.00,97.77
1374.00,97.68
1373.00,97.58
1372.00,97.49
1371.00,97.41
1370.00,97.34
1369.00,97.30
1368.00,97.29
1367.00,97.31
1366.00,97.34
1365.00,97.38
1364.00,97.43
1363.00,97.48
1362.00,97.52
1361.00,97.56
1360.00,97.59
1359.00,97.60
1358.00,97.61
1357.00,97.60
1356.00,97.60
1355.00,97.58
1354.00,97.56
1353.00,97.56
1352.00,97.57
1351.00,97.58
1350.00,97.60
1349.00,97.63
1348.00,97.67
1347.00,97.70
1346.00,97.73
1345.00,97.76
1344.00,97.79
1343.00,97.81
1342.00,97.83
1341.00,97.86
1340.00,97.89
1339.00,97.91
1338.00,97.94
1337.00,97.97
1336.00,98.00
1335.00,98.03
1334.00,98.05
1333.00,98.07
1332.00,98.08
1331.00,98.08
1330.00,98.08
1329.00,98.08
1328.00,98.07
1327.00,98.06
1326.00,98.05
1325.00,98.04
1324.00,98.03
1323.00,98.02
1322.00,98.01
1321.00,97.99
1320.00,97.98
1319.00,97.96
1318.00,97.93
1317.00,97.91
1316.00,97.89
1315.00,97.86
1314.00,97.84
1313.00,97.82
1312.00,97.80
1311.00,97.78
1310.00,97.76
1309.00,97.75
1308.00,97.75
1307.00,97.74
1306.00,97.74
1305.00,97.74
1304.00,97.75
1303.00,97.75
1302.00,97.76
1301.00,97.76
1300.00,97.78
1299.00,97.78
1298.00,97.79
1297.00,97.80
1296.00,97.82
1295.00,97.84
1294.00,97.86
1293.00,97.89
1292.00,97.91
1291.00,97.93
1290.00,97.94
1289.00,97.95
1288.00,97.97
1287.00,97.99
1286.00,98.00
1285.00,98.02
1284.00,98.03
1283.00,98.04
1282.00,98.04
1281.00,98.05
1280.00,98.06
1279.00,98.06
1278.00,98.07
1277.00,98.08
1276.00,98.08
1275.00,98.09
1274.00,98.09
1273.00,98.10
1272.00,98.12
1271.00,98.13
1270.00,98.13
1269.00,98.14
1268.00,98.16
1267.00,98.17
1266.00,98.18
1265.00,98.20
1264.00,98.22
1263.00,98.23
1262.00,98.24
1261.00,98.26
1260.00,98.29
1259.00,98.31
1258.00,98.33
1257.00,98.35
1256.00,98.37
1255.00,98.40
1254.00,98.42
1253.00,98.45
1252.00,98.47
1251.00,98.50
1250.00,98.53
1249.00,98.56
1248.00,98.59
1247.00,98.61
1246.00,98.64
1245.00,98.67
1244.00,98.70
1243.00,98.71
1242.00,98.72
1241.00,98.73
1240.00,98.74
1239.00,98.74
1238.00,98.73
1237.00,98.73
1236.00,98.73
1235.00,98.73
1234.00,98.71
1233.00,98.71
1232.00,98.71
1231.00,98.70
1230.00,98.70
1229.00,98.70
1228.00,98.69
1227.00,98.69
1226.00,98.68
1225.00,98.67
1224.00,98.67
1223.00,98.66
1222.00,98.65
1221.00,98.64
1220.00,98.64
1219.00,98.63
1218.00,98.61
1217.00,98.60
1216.00,98.59
1215.00,98.58
1214.00,98.56
1213.00,98.55
1212.00,98.54
1211.00,98.54
1210.00,98.53
1209.00,98.53
1208.00,98.53
1207.00,98.52
1206.00,98.50
1205.00,98.49
1204.00,98.48
1203.00,98.47
1202.00,98.46
1201.00,98.45
1200.00,98.45
1199.00,98.45
1198.00,98.44
1197.00,98.44
1196.00,98.43
1195.00,98.42
1194.00,98.41
1193.00,98.40
1192.00,98.39
1191.00,98.39
1190.00,98.39
1189.00,98.38
1188.00,98.38
1187.00,98.37
1186.00,98.36
1185.00,98.35
1184.00,98.34
1183.00,98.34
1182.00,98.33
1181.00,98.32
1180.00,98.31
1179.00,98.29
1178.00,98.27
1177.00,98.25
1176.00,98.25
1175.00,98.26
1174.00,98.26
1173.00,98.27
1172.00,98.28
1171.00,98.27
1170.00,98.26
1169.00,98.26
1168.00,98.25
1167.00,98.25
1166.00,98.25
1165.00,98.24
1164.00,98.24
1163.00,98.24
1162.00,98.24
1161.00,98.23
1160.00,98.23
1159.00,98.22
1158.00,98.22
1157.00,98.22
1156.00,98.22
1155.00,98.22
1154.00,98.22
1153.00,98.22
1152.00,98.22
1151.00,98.21
1150.00,98.21
1149.00,98.21
1148.00,98.21
1147.00,98.21
1146.00,98.20
1145.00,98.20
1144.00,98.20
1143.00,98.20
1142.00,98.19
1141.00,98.18
1140.00,98.18
1139.00,98.18
1138.00,98.18
1137.00,98.18
1136.00,98.18
1135.00,98.18
1134.00,98.17
1133.00,98.17
1132.00,98.18
1131.00,98.18
1130.00,98.17
1129.00,98.17
1128.00,98.17
1127.00,98.16
1126.00,98.16
1125.00,98.16
1124.00,98.16
1123.00,98.15
1122.00,98.14
1121.00,98.14
1120.00,98.14
1119.00,98.14
1118.00,98.14
1117.00,98.13
1116.00,98.13
1115.00,98.12
1114.00,98.11
1113.00,98.11
1112.00,98.11
1111.00,98.11
1110.00,98.10
1109.00,98.10
1108.00,98.10
1107.00,98.11
1106.00,98.11
1105.00,98.11
1104.00,98.11
1103.00,98.11
1102.00,98.11
1101.00,98.10
1100.00,98.09
1099.00,98.07
1098.00,98.06
1097.00,98.05
1096.00,98.04
1095.00,98.03
1094.00,98.01
1093.00,98.00
1092.00,97.99
1091.00,97.98
1090.00,97.97
1089.00,97.96
1088.00,97.96
1087.00,97.95
1086.00,97.94
1085.00,97.92
1084.00,97.91
1083.00,97.90
1082.00,97.89
1081.00,97.88
1080.00,97.89
1079.00,97.90
1078.00,97.91
1077.00,97.92
1076.00,97.93
1075.00,97.94
1074.00,97.95
1073.00,97.97
1072.00,97.98
1071.00,97.99
1070.00,98.00
1069.00,98.00
1068.00,98.00
1067.00,98.00
1066.00,98.00
1065.00,98.00
1064.00,98.00
1063.00,98.00
1062.00,97.99
1061.00,97.99
1060.00,98.00
1059.00,98.01
1058.00,98.02
1057.00,98.02
1056.00,98.02
1055.00,98.02
1054.00,98.02
1053.00,98.01
1052.00,98.01
1051.00,98.01
1050.00,98.03
1049.00,98.05
1048.00,98.08
1047.00,98.09
1046.00,98.10
1045.00,98.10
1044.00,98.10
1043.00,98.10
1042.00,98.10
1041.00,98.11
1040.00,98.12
1039.00,98.12
1038.00,98.11
1037.00,98.11
1036.00,98.13
1035.00,98.14
1034.00,98.15
1033.00,98.15
1032.00,98.15
1031.00,98.15
1030.00,98.14
1029.00,98.14
1028.00,98.14
1027.00,98.14
1026.00,98.14
1025.00,98.15
1024.00,98.15
1023.00,98.16
1022.00,98.16
1021.00,98.16
1020.00,98.17
1019.00,98.17
1018.00,98.17
1017.00,98.17
1016.00,98.17
1015.00,98.17
1014.00,98.17
1013.00,98.17
1012.00,98.17
1011.00,98.17
1010.00,98.17
1009.00,98.17
1008.00,98.17
1007.00,98.18
1006.00,98.18
1005.00,98.17
1004.00,98.16
1003.00,98.15
1002.00,98.14
1001.00,98.12
1000.00,98.12
999.00,98.11
998.00,98.10
997.00,98.09
996.00,98.07
995.00,98.05
994.00,98.03
993.00,98.02
992.00,98.01
991.00,98.00
990.00,98.01
989.00,98.02
988.00,98.04
987.00,98.07
986.00,98.09
985.00,98.11
984.00,98.12
983.00,98.14
982.00,98.14
981.00,98.15
980.00,98.15
979.00,98.15
978.00,98.15
977.00,98.15
976.00,98.16
975.00,98.16
974.00,98.16
973.00,98.16
972.00,98.16
971.00,98.15
970.00,98.15
969.00,98.15
968.00,98.15
967.00,98.16
966.00,98.17
965.00,98.17
964.00,98.18
963.00,98.17
962.00,98.17
961.00,98.17
960.00,98.17
959.00,98.17
958.00,98.17
957.00,98.17
956.00,98.18
955.00,98.18
954.00,98.18
953.00,98.19
952.00,98.19
951.00,98.19
950.00,98.19
949.00,98.19
948.00,98.20
947.00,98.20
946.00,98.21
945.00,98.21
944.00,98.22
943.00,98.22
942.00,98.22
941.00,98.21
940.00,98.21
939.00,98.21
938.00,98.21
937.00,98.21
936.00,98.21
935.00,98.21
934.00,98.21
933.00,98.20
932.00,98.19
931.00,98.19
930.00,98.18
929.00,98.16
928.00,98.16
927.00,98.16
926.00,98.16
925.00,98.16
924.00,98.16
923.00,98.16
922.00,98.15
921.00,98.15
920.00,98.14
919.00,98.14
918.00,98.12
917.00,98.09
916.00,98.05
915.00,98.00
914.00,97.92
913.00,97.84
912.00,97.74
911.00,97.64
910.00,97.55
909.00,97.50
908.00,97.51
907.00,97.57
906.00,97.66
905.00,97.76
904.00,97.85
903.00,97.91
902.00,97.96
901.00,98.00
900.00,98.03
899.00,98.06
898.00,98.07
897.00,98.07
896.00,98.07
895.00,98.07
894.00,98.07
893.00,98.06
892.00,98.06
891.00,98.06
890.00,98.06
889.00,98.07
888.00,98.08
887.00,98.09
886.00,98.10
885.00,98.11
884.00,98.11
883.00,98.11
882.00,98.10
881.00,98.10
880.00,98.10
879.00,98.11
878.00,98.11
877.00,98.11
876.00,98.11
875.00,98.10
874.00,98.09
873.00,98.08
872.00,98.08
871.00,98.08
870.00,98.08
869.00,98.08
868.00,98.08
867.00,98.08
866.00,98.07
865.00,98.07
864.00,98.07
863.00,98.08
862.00,98.07
861.00,98.07
860.00,98.06
859.00,98.05
858.00,98.03
857.00,98.02
856.00,98.03
855.00,98.04
854.00,98.05
853.00,98.05
852.00,98.04
851.00,98.03
850.00,98.02
849.00,98.01
848.00,98.01
847.00,98.01
846.00,98.01
845.00,98.01
844.00,98.02
843.00,98.03
842.00,98.03
841.00,98.03
840.00,98.02
839.00,98.01
838.00,98.00
837.00,97.99
836.00,98.00
835.00,98.01
834.00,98.02
833.00,98.01
832.00,98.00
831.00,97.99
830.00,97.98
829.00,97.97
828.00,97.98
827.00,97.99
826.00,98.00
825.00,98.00
824.00,97.99
823.00,97.98
822.00,97.97
821.00,97.96
820.00,97.96
819.00,97.98
818.00,97.98
817.00,97.98
816.00,97.96
815.00,97.94
814.00,97.93
813.00,97.92
812.00,97.93
811.00,97.93
810.00,97.93
809.00,97.92
808.00,97.92
807.00,97.92
806.00,97.91
805.00,97.90
804.00,97.89
803.00,97.88
802.00,97.87
801.00,97.87
800.00,97.88
799.00,97.89
798.00,97.90
797.00,97.88
796.00,97.87
795.00,97.86
794.00,97.86
793.00,97.86
792.00,97.87
791.00,97.87
790.00,97.87
789.00,97.86
788.00,97.85
787.00,97.85
786.00,97.84
785.00,97.84
784.00,97.83
783.00,97.83
782.00,97.82
781.00,97.82
780.00,97.82
779.00,97.83
778.00,97.83
777.00,97.83
776.00,97.82
775.00,97.81
774.00,97.78
773.00,97.74
772.00,97.70
771.00,97.69
770.00,97.68
769.00,97.68
768.00,97.68
767.00,97.68
766.00,97.66
765.00,97.64
764.00,97.63
763.00,97.63
762.00,97.63
761.00,97.60
760.00,97.58
759.00,97.57
758.00,97.55
757.00,97.51
756.00,97.48
755.00,97.46
754.00,97.44
753.00,97.41
752.00,97.38
751.00,97.36
750.00,97.33
749.00,97.28
748.00,97.22
747.00,97.16
746.00,97.10
745.00,97.02
744.00,96.94
743.00,96.85
742.00,96.74
741.00,96.56
740.00,96.34
739.00,96.09
738.00,95.71
737.00,95.11
736.00,94.11
735.00,92.33
734.00,89.34
733.00,85.21
732.00,80.92
731.00,78.08
730.00,77.76
729.00,79.70
728.00,82.57
727.00,84.97
726.00,86.22
725.00,86.24
724.00,85.08
723.00,82.54
722.00,78.46
721.00,73.45
720.00,69.17
719.00,67.47
718.00,68.93
717.00,72.58
716.00,76.93
715.00,80.91
714.00,84.12
713.00,86.58
712.00,88.43
711.00,89.82
710.00,90.89
709.00,91.77
708.00,92.47
707.00,93.02
706.00,93.47
705.00,93.88
704.00,94.24
703.00,94.54
702.00,94.81
701.00,95.07
700.00,95.29
699.00,95.45
698.00,95.59
697.00,95.74
696.00,95.88
695.00,95.99
694.00,96.09
693.00,96.18
692.00,96.25
691.00,96.28
690.00,96.29
689.00,96.32
688.00,96.37
687.00,96.41
686.00,96.45
685.00,96.51
684.00,96.55
683.00,96.57
682.00,96.57
681.00,96.60
680.00,96.65
679.00,96.68
678.00,96.71
677.00,96.75
676.00,96.79
675.00,96.80
674.00,96.80
673.00,96.80
672.00,96.80
671.00,96.79
670.00,96.79
669.00,96.84
668.00,96.94
667.00,96.99
666.00,96.99
665.00,96.99
664.00,96.98
663.00,96.96
662.00,96.94
661.00,96.94
660.00,96.94
659.00,96.94
658.00,96.94
657.00,96.97
656.00,96.99
655.00,96.97
654.00,96.95
653.00,96.96
652.00,96.99
651.00,97.00
650.00,96.98
