Created as New Dataset,Sample 001 By Administrator Date Tuesday, October 31 2023
cm-1,%T
4000.00,99.58
3999.00,99.58
3998.00,99.57
3997.00,99.57
3996.00,99.57
3995.00,99.57
3994.00,99.57
3993.00,99.58
3992.00,99.59
3991.00,99.60
3990.00,99.60
3989.00,99.59
3988.00,99.58
3987.00,99.58
3986.00,99.58
3985.00,99.58
3984.00,99.58
3983.00,99.57
3982.00,99.56
3981.00,99.55
3980.00,99.55
3979.00,99.56
3978.00,99.56
3977.00,99.56
3976.00,99.56
3975.00,99.56
3974.00,99.56
3973.00,99.56
3972.00,99.56
3971.00,99.56
3970.00,99.57
3969.00,99.57
3968.00,99.58
3967.00,99.58
3966.00,99.58
3965.00,99.58
3964.00,99.57
3963.00,99.57
3962.00,99.58
3961.00,99.58
3960.00,99.58
3959.00,99.58
3958.00,99.58
3957.00,99.58
3956.00,99.58
3955.00,99.58
3954.00,99.58
3953.00,99.58
3952.00,99.58
3951.00,99.58
3950.00,99.58
3949.00,99.57
3948.00,99.56
3947.00,99.56
3946.00,99.56
3945.00,99.56
3944.00,99.57
3943.00,99.57
3942.00,99.56
3941.00,99.56
3940.00,99.56
3939.00,99.57
3938.00,99.57
3937.00,99.57
3936.00,99.58
3935.00,99.57
3934.00,99.57
3933.00,99.57
3932.00,99.57
3931.00,99.57
3930.00,99.57
3929.00,99.57
3928.00,99.57
3927.00,99.57
3926.00,99.57
3925.00,99.58
3924.00,99.58
3923.00,99.58
3922.00,99.57
3921.00,99.56
3920.00,99.56
3919.00,99.55
3918.00,99.54
3917.00,99.53
3916.00,99.53
3915.00,99.53
3914.00,99.53
3913.00,99.53
3912.00,99.53
3911.00,99.53
3910.00,99.53
3909.00,99.53
3908.00,99.54
3907.00,99.54
3906.00,99.54
3905.00,99.55
3904.00,99.55
3903.00,99.55
3902.00,99.54
3901.00,99.53
3900.00,99.52
3899.00,99.52
3898.00,99.53
3897.00,99.54
3896.00,99.54
3895.00,99.53
3894.00,99.53
3893.00,99.53
3892.00,99.54
3891.00,99.54
3890.00,99.55
3889.00,99.55
3888.00,99.54
3887.00,99.53
3886.00,99.53
3885.00,99.52
3884.00,99.52
3883.00,99.53
3882.00,99.53
3881.00,99.53
3880.00,99.53
3879.00,99.54
3878.00,99.54
3877.00,99.55
3876.00,99.55
3875.00,99.56
3874.00,99.56
3873.00,99.57
3872.00,99.56
3871.00,99.55
3870.00,99.53
3869.00,99.52
3868.00,99.52
3867.00,99.53
3866.00,99.54
3865.00,99.55
3864.00,99.57
3863.00,99.57
3862.00,99.57
3861.00,99.56
3860.00,99.56
3859.00,99.55
3858.00,99.55
3857.00,99.55
3856.00,99.55
3855.00,99.55
3854.00,99.54
3853.00,99.55
3852.00,99.55
3851.00,99.56
3850.00,99.56
3849.00,99.56
3848.00,99.56
3847.00,99.56
3846.00,99.56
3845.00,99.57
3844.00,99.57
3843.00,99.56
3842.00,99.56
3841.00,99.55
3840.00,99.54
3839.00,99.53
3838.00,99.53
3837.00,99.53
3836.00,99.54
3835.00,99.54
3834.00,99.55
3833.00,99.56
3832.00,99.56
3831.00,99.56
3830.00,99.56
3829.00,99.55
3828.00,99.55
3827.00,99.55
3826.00,99.55
3825.00,99.55
3824.00,99.55
3823.00,99.54
3822.00,99.53
3821.00,99.53
3820.00,99.53
3819.00,99.54
3818.00,99.53
3817.00,99.53
3816.00,99.53
3815.00,99.54
3814.00,99.55
3813.00,99.55
3812.00,99.56
3811.00,99.56
3810.00,99.57
3809.00,99.57
3808.00,99.57
3807.00,99.57
3806.00,99.56
3805.00,99.56
3804.00,99.55
3803.00,99.55
3802.00,99.55
3801.00,99.55
3800.00,99.55
3799.00,99.55
3798.00,99.55
3797.00,99.55
3796.00,99.55
3795.00,99.56
3794.00,99.56
3793.00,99.55
3792.00,99.54
3791.00,99.54
3790.00,99.55
3789.00,99.55
3788.00,99.55
3787.00,99.55
3786.00,99.55
3785.00,99.55
3784.00,99.55
3783.00,99.56
3782.00,99.57
3781.00,99.57
3780.00,99.58
3779.00,99.58
3778.00,99.58
3777.00,99.57
3776.00,99.57
3775.00,99.56
3774.00,99.56
3773.00,99.56
3772.00,99.56
3771.00,99.56
3770.00,99.57
3769.00,99.57
3768.00,99.57
3767.00,99.56
3766.00,99.56
3765.00,99.55
3764.00,99.55
3763.00,99.55
3762.00,99.55
3761.00,99.55
3760.00,99.55
3759.00,99.56
3758.00,99.56
3757.00,99.57
3756.00,99.57
3755.00,99.57
3754.00,99.57
3753.00,99.57
3752.00,99.57
3751.00,99.57
3750.00,99.57
3749.00,99.56
3748.00,99.56
3747.00,99.55
3746.00,99.54
3745.00,99.53
3744.00,99.53
3743.00,99.54
3742.00,99.54
3741.00,99.54
3740.00,99.54
3739.00,99.54
3738.00,99.54
3737.00,99.54
3736.00,99.55
3735.00,99.55
3734.00,99.56
3733.00,99.56
3732.00,99.56
3731.00,99.56
3730.00,99.56
3729.00,99.56
3728.00,99.56
3727.00,99.56
3726.00,99.56
3725.00,99.56
3724.00,99.56
3723.00,99.56
3722.00,99.57
3721.00,99.58
3720.00,99.58
3719.00,99.58
3718.00,99.57
3717.00,99.56
3716.00,99.56
3715.00,99.57
3714.00,99.57
3713.00,99.57
3712.00,99.57
3711.00,99.56
3710.00,99.57
3709.00,99.57
3708.00,99.57
3707.00,99.57
3706.00,99.57
3705.00,99.56
3704.00,99.56
3703.00,99.55
3702.00,99.55
3701.00,99.55
3700.00,99.55
3699.00,99.55
3698.00,99.55
3697.00,99.56
3696.00,99.57
3695.00,99.58
3694.00,99.58
3693.00,99.58
3692.00,99.57
3691.00,99.56
3690.00,99.56
3689.00,99.55
3688.00,99.55
3687.00,99.56
3686.00,99.57
3685.00,99.57
3684.00,99.58
3683.00,99.58
3682.00,99.58
3681.00,99.57
3680.00,99.56
3679.00,99.56
3678.00,99.56
3677.00,99.56
3676.00,99.55
3675.00,99.55
3674.00,99.55
3673.00,99.54
3672.00,99.54
3671.00,99.54
3670.00,99.55
3669.00,99.55
3668.00,99.54
3667.00,99.53
3666.00,99.53
3665.00,99.53
3664.00,99.54
3663.00,99.56
3662.00,99.56
3661.00,99.56
3660.00,99.55
3659.00,99.55
3658.00,99.56
3657.00,99.57
3656.00,99.57
3655.00,99.57
3654.00,99.57
3653.00,99.56
3652.00,99.56
3651.00,99.55
3650.00,99.53
3649.00,99.52
3648.00,99.51
3647.00,99.51
3646.00,99.51
3645.00,99.52
3644.00,99.53
3643.00,99.55
3642.00,99.56
3641.00,99.56
3640.00,99.56
3639.00,99.55
3638.00,99.54
3637.00,99.53
3636.00,99.52
3635.00,99.52
3634.00,99.52
3633.00,99.54
3632.00,99.55
3631.00,99.56
3630.00,99.55
3629.00,99.53
3628.00,99.52
3627.00,99.52
3626.00,99.52
3625.00,99.53
3624.00,99.55
3623.00,99.56
3622.00,99.56
3621.00,99.55
3620.00,99.54
3619.00,99.53
3618.00,99.52
3617.00,99.52
3616.00,99.52
3615.00,99.52
3614.00,99.52
3613.00,99.52
3612.00,99.51
3611.00,99.51
3610.00,99.50
3609.00,99.50
3608.00,99.50
3607.00,99.49
3606.00,99.49
3605.00,99.49
3604.00,99.48
3603.00,99.49
3602.00,99.49
3601.00,99.50
3600.00,99.51
3599.00,99.52
3598.00,99.53
3597.00,99.54
3596.00,99.55
3595.00,99.55
3594.00,99.56
3593.00,99.56
3592.00,99.55
3591.00,99.54
3590.00,99.52
3589.00,99.52
3588.00,99.52
3587.00,99.54
3586.00,99.55
3585.00,99.55
3584.00,99.55
3583.00,99.54
3582.00,99.54
3581.00,99.55
3580.00,99.56
3579.00,99.57
3578.00,99.57
3577.00,99.57
3576.00,99.57
3575.00,99.56
3574.00,99.56
3573.00,99.56
3572.00,99.57
3571.00,99.58
3570.00,99.59
3569.00,99.58
3568.00,99.57
3567.00,99.56
3566.00,99.56
3565.00,99.56
3564.00,99.56
3563.00,99.57
3562.00,99.57
3561.00,99.57
3560.00,99.57
3559.00,99.57
3558.00,99.57
3557.00,99.57
3556.00,99.56
3555.00,99.56
3554.00,99.55
3553.00,99.55
3552.00,99.54
3551.00,99.54
3550.00,99.53
3549.00,99.53
3548.00,99.53
3547.00,99.53
3546.00,99.54
3545.00,99.54
3544.00,99.54
3543.00,99.53
3542.00,99.53
3541.00,99.53
3540.00,99.53
3539.00,99.54
3538.00,99.54
3537.00,99.55
3536.00,99.55
3535.00,99.55
3534.00,99.55
3533.00,99.54
3532.00,99.54
3531.00,99.54
3530.00,99.54
3529.00,99.55
3528.00,99.56
3527.00,99.56
3526.00,99.57
3525.00,99.56
3524.00,99.56
3523.00,99.55
3522.00,99.54
3521.00,99.54
3520.00,99.54
3519.00,99.54
3518.00,99.54
3517.00,99.54
3516.00,99.54
3515.00,99.54
3514.00,99.54
3513.00,99.54
3512.00,99.54
3511.00,99.53
3510.00,99.53
3509.00,99.52
3508.00,99.52
3507.00,99.52
3506.00,99.52
3505.00,99.53
3504.00,99.53
3503.00,99.53
3502.00,99.52
3501.00,99.52
3500.00,99.52
3499.00,99.52
3498.00,99.51
3497.00,99.50
3496.00,99.50
3495.00,99.50
3494.00,99.51
3493.00,99.52
3492.00,99.53
3491.00,99.52
3490.00,99.52
3489.00,99.51
3488.00,99.51
3487.00,99.51
3486.00,99.50
3485.00,99.50
3484.00,99.50
3483.00,99.50
3482.00,99.50
3481.00,99.51
3480.00,99.51
3479.00,99.52
3478.00,99.52
3477.00,99.52
3476.00,99.51
3475.00,99.51
3474.00,99.51
3473.00,99.50
3472.00,99.50
3471.00,99.50
3470.00,99.51
3469.00,99.51
3468.00,99.51
3467.00,99.51
3466.00,99.51
3465.00,99.50
3464.00,99.50
3463.00,99.51
3462.00,99.51
3461.00,99.51
3460.00,99.51
3459.00,99.50
3458.00,99.49
3457.00,99.49
3456.00,99.50
3455.00,99.50
3454.00,99.50
3453.00,99.49
3452.00,99.48
3451.00,99.48
3450.00,99.48
3449.00,99.48
3448.00,99.48
3447.00,99.47
3446.00,99.47
3445.00,99.46
3444.00,99.46
3443.00,99.46
3442.00,99.45
3441.00,99.45
3440.00,99.46
3439.00,99.46
3438.00,99.47
3437.00,99.48
3436.00,99.47
3435.00,99.47
3434.00,99.46
3433.00,99.46
3432.00,99.47
3431.00,99.48
3430.00,99.48
3429.00,99.48
3428.00,99.47
3427.00,99.45
3426.00,99.44
3425.00,99.44
3424.00,99.44
3423.00,99.44
3422.00,99.44
3421.00,99.44
3420.00,99.44
3419.00,99.44
3418.00,99.44
3417.00,99.44
3416.00,99.45
3415.00,99.46
3414.00,99.46
3413.00,99.46
3412.00,99.45
3411.00,99.45
3410.00,99.45
3409.00,99.45
3408.00,99.46
3407.00,99.46
3406.00,99.47
3405.00,99.48
3404.00,99.48
3403.00,99.47
3402.00,99.46
3401.00,99.45
3400.00,99.44
3399.00,99.44
3398.00,99.44
3397.00,99.44
3396.00,99.44
3395.00,99.43
3394.00,99.43
3393.00,99.42
3392.00,99.43
3391.00,99.44
3390.00,99.45
3389.00,99.44
3388.00,99.44
3387.00,99.43
3386.00,99.43
3385.00,99.43
3384.00,99.43
3383.00,99.43
3382.00,99.43
3381.00,99.44
3380.00,99.44
3379.00,99.45
3378.00,99.45
3377.00,99.45
3376.00,99.45
3375.00,99.44
3374.00,99.43
3373.00,99.43
3372.00,99.43
3371.00,99.43
3370.00,99.43
3369.00,99.42
3368.00,99.41
3367.00,99.40
3366.00,99.40
3365.00,99.40
3364.00,99.41
3363.00,99.41
3362.00,99.41
3361.00,99.40
3360.00,99.39
3359.00,99.39
3358.00,99.39
3357.00,99.39
3356.00,99.38
3355.00,99.38
3354.00,99.37
3353.00,99.36
3352.00,99.36
3351.00,99.35
3350.00,99.35
3349.00,99.35
3348.00,99.34
3347.00,99.34
3346.00,99.35
3345.00,99.35
3344.00,99.36
3343.00,99.37
3342.00,99.38
3341.00,99.38
3340.00,99.38
3339.00,99.38
3338.00,99.38
3337.00,99.38
3336.00,99.37
3335.00,99.36
3334.00,99.35
3333.00,99.35
3332.00,99.36
3331.00,99.36
3330.00,99.37
3329.00,99.37
3328.00,99.37
3327.00,99.37
3326.00,99.37
3325.00,99.36
3324.00,99.35
3323.00,99.35
3322.00,99.35
3321.00,99.35
3320.00,99.35
3319.00,99.35
3318.00,99.34
3317.00,99.33
3316.00,99.33
3315.00,99.33
3314.00,99.33
3313.00,99.33
3312.00,99.33
3311.00,99.33
3310.00,99.32
3309.00,99.32
3308.00,99.33
3307.00,99.34
3306.00,99.34
3305.00,99.34
3304.00,99.34
3303.00,99.33
3302.00,99.32
3301.00,99.31
3300.00,99.29
3299.00,99.28
3298.00,99.29
3297.00,99.29
3296.00,99.31
3295.00,99.31
3294.00,99.32
3293.00,99.31
3292.00,99.30
3291.00,99.30
3290.00,99.30
3289.00,99.29
3288.00,99.29
3287.00,99.29
3286.00,99.29
3285.00,99.29
3284.00,99.29
3283.00,99.29
3282.00,99.29
3281.00,99.28
3280.00,99.28
3279.00,99.28
3278.00,99.28
3277.00,99.27
3276.00,99.27
3275.00,99.27
3274.00,99.27
3273.00,99.27
3272.00,99.27
3271.00,99.27
3270.00,99.26
3269.00,99.25
3268.00,99.24
3267.00,99.23
3266.00,99.22
3265.00,99.22
3264.00,99.23
3263.00,99.23
3262.00,99.23
3261.00,99.23
3260.00,99.23
3259.00,99.24
3258.00,99.24
3257.00,99.24
3256.00,99.23
3255.00,99.23
3254.00,99.22
3253.00,99.21
3252.00,99.22
3251.00,99.22
3250.00,99.23
3249.00,99.23
3248.00,99.22
3247.00,99.21
3246.00,99.19
3245.00,99.19
3244.00,99.19
3243.00,99.19
3242.00,99.18
3241.00,99.17
3240.00,99.17
3239.00,99.18
3238.00,99.18
3237.00,99.19
3236.00,99.18
3235.00,99.18
3234.00,99.18
3233.00,99.18
3232.00,99.19
3231.00,99.18
3230.00,99.18
3229.00,99.18
3228.00,99.18
3227.00,99.18
3226.00,99.18
3225.00,99.18
3224.00,99.17
3223.00,99.16
3222.00,99.15
3221.00,99.15
3220.00,99.15
3219.00,99.16
3218.00,99.16
3217.00,99.15
3216.00,99.14
3215.00,99.13
3214.00,99.12
3213.00,99.11
3212.00,99.11
3211.00,99.11
3210.00,99.11
3209.00,99.10
3208.00,99.09
3207.00,99.08
3206.00,99.08
3205.00,99.07
3204.00,99.07
3203.00,99.07
3202.00,99.07
3201.00,99.07
3200.00,99.07
3199.00,99.07
3198.00,99.06
3197.00,99.06
3196.00,99.07
3195.00,99.07
3194.00,99.06
3193.00,99.06
3192.00,99.06
3191.00,99.06
3190.00,99.06
3189.00,99.06
3188.00,99.05
3187.00,99.05
3186.00,99.04
3185.00,99.03
3184.00,99.03
3183.00,99.02
3182.00,99.02
3181.00,99.03
3180.00,99.04
3179.00,99.05
3178.00,99.05
3177.00,99.05
3176.00,99.03
3175.00,99.02
3174.00,99.01
3173.00,99.01
3172.00,99.01
3171.00,99.01
3170.00,99.01
3169.00,99.01
3168.00,99.01
3167.00,99.01
3166.00,99.01
3165.00,99.02
3164.00,99.02
3163.00,99.02
3162.00,99.01
3161.00,99.00
3160.00,98.99
3159.00,98.99
3158.00,98.98
3157.00,98.97
3156.00,98.96
3155.00,98.95
3154.00,98.95
3153.00,98.94
3152.00,98.94
3151.00,98.94
3150.00,98.94
3149.00,98.95
3148.00,98.95
3147.00,98.95
3146.00,98.94
3145.00,98.93
3144.00,98.92
3143.00,98.92
3142.00,98.92
3141.00,98.92
3140.00,98.92
3139.00,98.92
3138.00,98.91
3137.00,98.91
3136.00,98.90
3135.00,98.90
3134.00,98.89
3133.00,98.88
3132.00,98.87
3131.00,98.87
3130.00,98.87
3129.00,98.86
3128.00,98.85
3127.00,98.85
3126.00,98.85
3125.00,98.85
3124.00,98.85
3123.00,98.84
3122.00,98.84
3121.00,98.84
3120.00,98.84
3119.00,98.83
3118.00,98.83
3117.00,98.82
3116.00,98.81
3115.00,98.80
3114.00,98.79
3113.00,98.79
3112.00,98.79
3111.00,98.79
3110.00,98.78
3109.00,98.77
3108.00,98.76
3107.00,98.74
3106.00,98.73
3105.00,98.71
3104.00,98.71
3103.00,98.71
3102.00,98.72
3101.00,98.72
3100.00,98.72
3099.00,98.72
3098.00,98.72
3097.00,98.71
3096.00,98.70
3095.00,98.69
3094.00,98.68
3093.00,98.67
3092.00,98.67
3091.00,98.66
3090.00,98.66
3089.00,98.65
3088.00,98.64
3087.00,98.63
3086.00,98.62
3085.00,98.62
3084.00,98.62
3083.00,98.62
3082.00,98.62
3081.00,98.62
3080.00,98.62
3079.00,98.62
3078.00,98.61
3077.00,98.61
3076.00,98.61
3075.00,98.60
3074.00,98.59
3073.00,98.58
3072.00,98.58
3071.00,98.57
3070.00,98.57
3069.00,98.57
3068.00,98.56
3067.00,98.56
3066.00,98.56
3065.00,98.56
3064.00,98.56
3063.00,98.55
3062.00,98.54
3061.00,98.53
3060.00,98.52
3059.00,98.51
3058.00,98.51
3057.00,98.51
3056.00,98.51
3055.00,98.50
3054.00,98.49
3053.00,98.48
3052.00,98.48
3051.00,98.48
3050.00,98.47
3049.00,98.47
3048.00,98.47
3047.00,98.46
3046.00,98.46
3045.00,98.46
3044.00,98.46
3043.00,98.45
3042.00,98.45
3041.00,98.44
3040.00,98.43
3039.00,98.42
3038.00,98.41
3037.00,98.41
3036.00,98.41
3035.00,98.41
3034.00,98.41
3033.00,98.41
3032.00,98.40
3031.00,98.40
3030.00,98.39
3029.00,98.39
3028.00,98.39
3027.00,98.39
3026.00,98.39
3025.00,98.38
3024.00,98.38
3023.00,98.38
3022.00,98.39
3021.00,98.40
3020.00,98.41
3019.00,98.42
3018.00,98.42
3017.00,98.41
3016.00,98.41
3015.00,98.40
3014.00,98.40
3013.00,98.40
3012.00,98.39
3011.00,98.38
3010.00,98.38
3009.00,98.37
3008.00,98.37
3007.00,98.37
3006.00,98.38
3005.00,98.38
3004.00,98.38
3003.00,98.38
3002.00,98.39
3001.00,98.39
3000.00,98.39
2999.00,98.38
2998.00,98.38
2997.00,98.36
2996.00,98.35
2995.00,98.34
2994.00,98.34
2993.00,98.34
2992.00,98.34
2991.00,98.33
2990.00,98.31
2989.00,98.30
2988.00,98.29
2987.00,98.29
2986.00,98.29
2985.00,98.28
2984.00,98.27
2983.00,98.26
2982.00,98.26
2981.00,98.25
2980.00,98.23
2979.00,98.22
2978.00,98.20
2977.00,98.18
2976.00,98.17
2975.00,98.16
2974.00,98.15
2973.00,98.14
2972.00,98.12
2971.00,98.11
2970.00,98.10
2969.00,98.09
2968.00,98.07
2967.00,98.04
2966.00,98.02
2965.00,97.99
2964.00,97.97
2963.00,97.93
2962.00,97.89
2961.00,97.85
2960.00,97.81
2959.00,97.77
2958.00,97.74
2957.00,97.69
2956.00,97.63
2955.00,97.57
2954.00,97.50
2953.00,97.42
2952.00,97.34
2951.00,97.25
2950.00,97.14
2949.00,97.03
2948.00,96.90
2947.00,96.76
2946.00,96.60
2945.00,96.43
2944.00,96.24
2943.00,96.02
2942.00,95.79
2941.00,95.52
2940.00,95.24
2939.00,94.93
2938.00,94.59
2937.00,94.23
2936.00,93.83
2935.00,93.41
2934.00,92.95
2933.00,92.45
2932.00,91.91
2931.00,91.32
2930.00,90.67
2929.00,89.95
2928.00,89.13
2927.00,88.21
2926.00,87.16
2925.00,86.00
2924.00,84.71
2923.00,83.31
2922.00,81.84
2921.00,80.31
2920.00,78.79
2919.00,77.32
2918.00,76.01
2917.00,74.96
2916.00,74.27
2915.00,74.01
2914.00,74.18
2913.00,74.74
2912.00,75.57
2911.00,76.58
2910.00,77.64
2909.00,78.69
2908.00,79.68
2907.00,80.58
2906.00,81.38
2905.00,82.09
2904.00,82.71
2903.00,83.26
2902.00,83.74
2901.00,84.16
2900.00,84.55
2899.00,84.91
2898.00,85.26
2897.00,85.59
2896.00,85.92
2895.00,86.24
2894.00,86.56
2893.00,86.88
2892.00,87.20
2891.00,87.53
2890.00,87.85
2889.00,88.18
2888.00,88.52
2887.00,88.87
2886.00,89.23
2885.00,89.59
2884.00,89.96
2883.00,90.34
2882.00,90.73
2881.00,91.13
2880.00,91.54
2879.00,91.96
2878.00,92.37
2877.00,92.76
2876.00,93.14
2875.00,93.48
2874.00,93.77
2873.00,94.02
2872.00,94.21
2871.00,94.36
2870.00,94.46
2869.00,94.52
2868.00,94.54
2867.00,94.52
2866.00,94.45
2865.00,94.34
2864.00,94.17
2863.00,93.93
2862.00,93.60
2861.00,93.17
2860.00,92.61
2859.00,91.90
2858.00,90.99
2857.00,89.85
2856.00,88.43
2855.00,86.73
2854.00,84.75
2853.00,82.55
2852.00,80.27
2851.00,78.13
2850.00,76.41
2849.00,75.35
2848.00,75.12
2847.00,75.68
2846.00,76.88
2845.00,78.48
2844.00,80.24
2843.00,81.98
2842.00,83.60
2841.00,85.04
2840.00,86.30
2839.00,87.39
2838.00,88.34
2837.00,89.16
2836.00,89.87
2835.00,90.50
2834.00,91.04
2833.00,91.52
2832.00,91.94
2831.00,92.32
2830.00,92.66
2829.00,92.97
2828.00,93.25
2827.00,93.50
2826.00,93.73
2825.00,93.94
2824.00,94.14
2823.00,94.32
2822.00,94.48
2821.00,94.63
2820.00,94.77
2819.00,94.90
2818.00,95.03
2817.00,95.16
2816.00,95.28
2815.00,95.39
2814.00,95.49
2813.00,95.58
2812.00,95.66
2811.00,95.73
2810.00,95.80
2809.00,95.87
2808.00,95.94
2807.00,96.01
2806.00,96.09
2805.00,96.15
2804.00,96.22
2803.00,96.28
2802.00,96.33
2801.00,96.39
2800.00,96.44
2799.00,96.49
2798.00,96.54
2797.00,96.60
2796.00,96.65
2795.00,96.69
2794.00,96.73
2793.00,96.77
2792.00,96.81
2791.00,96.85
2790.00,96.90
2789.00,96.95
2788.00,96.99
2787.00,97.03
2786.00,97.07
2785.00,97.11
2784.00,97.14
2783.00,97.18
2782.00,97.21
2781.00,97.25
2780.00,97.28
2779.00,97.31
2778.00,97.34
2777.00,97.37
2776.00,97.40
2775.00,97.42
2774.00,97.43
2773.00,97.45
2772.00,97.48
2771.00,97.51
2770.00,97.53
2769.00,97.55
2768.00,97.57
2767.00,97.58
2766.00,97.59
2765.00,97.60
2764.00,97.62
2763.00,97.63
2762.00,97.65
2761.00,97.66
2760.00,97.68
2759.00,97.69
2758.00,97.71
2757.00,97.73
2756.00,97.74
2755.00,97.76
2754.00,97.77
2753.00,97.78
2752.00,97.79
2751.00,97.79
2750.00,97.80
2749.00,97.81
2748.00,97.81
2747.00,97.82
2746.00,97.82
2745.00,97.82
2744.00,97.82
2743.00,97.82
2742.00,97.83
2741.00,97.84
2740.00,97.85
2739.00,97.86
2738.00,97.87
2737.00,97.88
2736.00,97.89
2735.00,97.90
2734.00,97.91
2733.00,97.92
2732.00,97.93
2731.00,97.94
2730.00,97.95
2729.00,97.96
2728.00,97.98
2727.00,97.99
2726.00,98.01
2725.00,98.01
2724.00,98.02
2723.00,98.03
2722.00,98.04
2721.00,98.04
2720.00,98.05
2719.00,98.07
2718.00,98.08
2717.00,98.09
2716.00,98.09
2715.00,98.10
2714.00,98.10
2713.00,98.11
2712.00,98.12
2711.00,98.13
2710.00,98.14
2709.00,98.14
2708.00,98.14
2707.00,98.14
2706.00,98.15
2705.00,98.16
2704.00,98.17
2703.00,98.17
2702.00,98.18
2701.00,98.19
2700.00,98.19
2699.00,98.19
2698.00,98.19
2697.00,98.20
2696.00,98.21
2695.00,98.21
2694.00,98.22
2693.00,98.22
2692.00,98.22
2691.00,98.22
2690.00,98.23
2689.00,98.22
2688.00,98.22
2687.00,98.21
2686.00,98.20
2685.00,98.20
2684.00,98.20
2683.00,98.20
2682.00,98.20
2681.00,98.20
2680.00,98.19
2679.00,98.18
2678.00,98.16
2677.00,98.15
2676.00,98.14
2675.00,98.13
2674.00,98.12
2673.00,98.11
2672.00,98.10
2671.00,98.09
2670.00,98.07
2669.00,98.05
2668.00,98.04
2667.00,98.02
2666.00,98.01
2665.00,97.99
2664.00,97.98
2663.00,97.97
2662.00,97.96
2661.00,97.95
2660.00,97.95
2659.00,97.94
2658.00,97.93
2657.00,97.93
2656.00,97.93
2655.00,97.93
2654.00,97.93
2653.00,97.94
2652.00,97.94
2651.00,97.94
2650.00,97.93
2649.00,97.92
2648.00,97.91
2647.00,97.91
2646.00,97.91
2645.00,97.91
2644.00,97.91
2643.00,97.91
2642.00,97.92
2641.00,97.92
2640.00,97.91
2639.00,97.91
2638.00,97.90
2637.00,97.89
2636.00,97.88
2635.00,97.88
2634.00,97.88
2633.00,97.88
2632.00,97.88
2631.00,97.89
2630.00,97.90
2629.00,97.92
2628.00,97.93
2627.00,97.95
2626.00,97.95
2625.00,97.96
2624.00,97.97
2623.00,97.99
2622.00,98.01
2621.00,98.04
2620.00,98.06
2619.00,98.08
2618.00,98.08
2617.00,98.08
2616.00,98.09
2615.00,98.10
2614.00,98.11
2613.00,98.12
2612.00,98.13
2611.00,98.14
2610.00,98.16
2609.00,98.17
2608.00,98.19
2607.00,98.20
2606.00,98.22
2605.00,98.23
2604.00,98.24
2603.00,98.25
2602.00,98.26
2601.00,98.27
2600.00,98.28
2599.00,98.28
2598.00,98.29
2597.00,98.30
2596.00,98.31
2595.00,98.32
2594.00,98.32
2593.00,98.32
2592.00,98.32
2591.00,98.32
2590.00,98.33
2589.00,98.34
2588.00,98.35
2587.00,98.36
2586.00,98.37
2585.00,98.38
2584.00,98.39
2583.00,98.39
2582.00,98.38
2581.00,98.38
2580.00,98.37
2579.00,98.38
2578.00,98.38
2577.00,98.39
2576.00,98.39
2575.00,98.39
2574.00,98.38
2573.00,98.37
2572.00,98.37
2571.00,98.38
2570.00,98.39
2569.00,98.39
2568.00,98.39
2567.00,98.39
2566.00,98.38
2565.00,98.38
2564.00,98.37
2563.00,98.37
2562.00,98.37
2561.00,98.37
2560.00,98.36
2559.00,98.35
2558.00,98.35
2557.00,98.35
2556.00,98.36
2555.00,98.37
2554.00,98.37
2553.00,98.37
2552.00,98.36
2551.00,98.35
2550.00,98.35
2549.00,98.34
2548.00,98.34
2547.00,98.34
2546.00,98.34
2545.00,98.34
2544.00,98.34
2543.00,98.35
2542.00,98.36
2541.00,98.37
2540.00,98.38
2539.00,98.39
2538.00,98.40
2537.00,98.41
2536.00,98.41
2535.00,98.41
2534.00,98.41
2533.00,98.40
2532.00,98.41
2531.00,98.41
2530.00,98.43
2529.00,98.44
2528.00,98.46
2527.00,98.48
2526.00,98.49
2525.00,98.51
2524.00,98.52
2523.00,98.52
2522.00,98.53
2521.00,98.54
2520.00,98.54
2519.00,98.55
2518.00,98.55
2517.00,98.56
2516.00,98.57
2515.00,98.59
2514.00,98.60
2513.00,98.61
2512.00,98.61
2511.00,98.61
2510.00,98.61
2509.00,98.61
2508.00,98.62
2507.00,98.62
2506.00,98.63
2505.00,98.64
2504.00,98.64
2503.00,98.65
2502.00,98.65
2501.00,98.66
2500.00,98.67
2499.00,98.68
2498.00,98.68
2497.00,98.68
2496.00,98.69
2495.00,98.70
2494.00,98.71
2493.00,98.73
2492.00,98.73
2491.00,98.73
2490.00,98.72
2489.00,98.71
2488.00,98.72
2487.00,98.73
2486.00,98.74
2485.00,98.75
2484.00,98.76
2483.00,98.76
2482.00,98.76
2481.00,98.75
2480.00,98.75
2479.00,98.75
2478.00,98.75
2477.00,98.75
2476.00,98.76
2475.00,98.77
2474.00,98.78
2473.00,98.79
2472.00,98.80
2471.00,98.81
2470.00,98.82
2469.00,98.83
2468.00,98.83
2467.00,98.83
2466.00,98.82
2465.00,98.83
2464.00,98.83
2463.00,98.83
2462.00,98.83
2461.00,98.82
2460.00,98.82
2459.00,98.83
2458.00,98.85
2457.00,98.86
2456.00,98.86
2455.00,98.86
2454.00,98.85
2453.00,98.85
2452.00,98.85
2451.00,98.86
2450.00,98.86
2449.00,98.88
2448.00,98.89
2447.00,98.90
2446.00,98.89
2445.00,98.89
2444.00,98.88
2443.00,98.88
2442.00,98.88
2441.00,98.88
2440.00,98.89
2439.00,98.89
2438.00,98.90
2437.00,98.90
2436.00,98.90
2435.00,98.90
2434.00,98.90
2433.00,98.90
2432.00,98.90
2431.00,98.91
2430.00,98.92
2429.00,98.93
2428.00,98.93
2427.00,98.93
2426.00,98.93
2425.00,98.93
2424.00,98.93
2423.00,98.93
2422.00,98.93
2421.00,98.93
2420.00,98.92
2419.00,98.92
2418.00,98.91
2417.00,98.91
2416.00,98.91
2415.00,98.92
2414.00,98.94
2413.00,98.95
2412.00,98.96
2411.00,98.96
2410.00,98.97
2409.00,98.97
2408.00,98.97
2407.00,98.98
2406.00,98.98
2405.00,98.98
2404.00,98.99
2403.00,98.99
2402.00,99.00
2401.00,99.00
2400.00,99.00
2399.00,99.00
2398.00,99.00
2397.00,99.01
2396.00,99.01
2395.00,99.01
2394.00,99.02
2393.00,99.02
2392.00,99.02
2391.00,99.02
2390.00,99.02
2389.00,99.02
2388.00,99.02
2387.00,99.03
2386.00,99.03
2385.00,99.03
2384.00,99.02
2383.00,99.03
2382.00,99.03
2381.00,99.03
2380.00,99.03
2379.00,99.03
2378.00,99.03
2377.00,99.03
2376.00,99.03
2375.00,99.04
2374.00,99.05
2373.00,99.05
2372.00,99.05
2371.00,99.06
2370.00,99.06
2369.00,99.07
2368.00,99.07
2367.00,99.07
2366.00,99.05
2365.00,99.03
2364.00,99.01
2363.00,99.00
2362.00,99.01
2361.00,99.03
2360.00,99.05
2359.00,99.06
2358.00,99.04
2357.00,98.99
2356.00,98.95
2355.00,98.93
2354.00,98.92
2353.00,98.94
2352.00,98.97
2351.00,98.99
2350.00,99.00
2349.00,99.00
2348.00,98.99
2347.00,98.98
2346.00,98.97
2345.00,98.96
2344.00,98.96
2343.00,98.96
2342.00,98.97
2341.00,98.97
2340.00,98.97
2339.00,98.97
2338.00,98.97
2337.00,98.96
2336.00,98.95
2335.00,98.95
2334.00,98.95
2333.00,98.95
2332.00,98.95
2331.00,98.95
2330.00,98.96
2329.00,98.96
2328.00,98.95
2327.00,98.93
2326.00,98.91
2325.00,98.89
2324.00,98.88
2323.00,98.88
2322.00,98.90
2321.00,98.90
2320.00,98.90
2319.00,98.90
2318.00,98.91
2317.00,98.91
2316.00,98.92
2315.00,98.93
2314.00,98.95
2313.00,98.96
2312.00,98.97
2311.00,98.98
2310.00,98.98
2309.00,98.98
2308.00,98.97
2307.00,98.97
2306.00,98.98
2305.00,99.00
2304.00,99.02
2303.00,99.03
2302.00,99.03
2301.00,99.02
2300.00,99.01
2299.00,99.00
2298.00,99.00
2297.00,99.01
2296.00,99.02
2295.00,99.03
2294.00,99.03
2293.00,99.04
2292.00,99.03
2291.00,99.02
2290.00,99.00
2289.00,98.98
2288.00,98.96
2287.00,98.95
2286.00,98.95
2285.00,98.96
2284.00,98.97
2283.00,98.99
2282.00,99.00
2281.00,99.00
2280.00,98.99
2279.00,98.99
2278.00,98.99
2277.00,98.99
2276.00,98.99
2275.00,98.99
2274.00,98.99
2273.00,98.98
2272.00,98.99
2271.00,98.99
2270.00,99.00
2269.00,99.00
2268.00,99.01
2267.00,99.02
2266.00,99.04
2265.00,99.05
2264.00,99.05
2263.00,99.04
2262.00,99.01
2261.00,99.00
2260.00,98.99
2259.00,99.00
2258.00,99.02
2257.00,99.03
2256.00,99.03
2255.00,99.04
2254.00,99.05
2253.00,99.06
2252.00,99.06
2251.00,99.06
2250.00,99.05
2249.00,99.03
2248.00,99.02
2247.00,99.04
2246.00,99.06
2245.00,99.07
2244.00,99.07
2243.00,99.07
2242.00,99.07
2241.00,99.07
2240.00,99.06
2239.00,99.06
2238.00,99.05
2237.00,99.06
2236.00,99.07
2235.00,99.09
2234.00,99.11
2233.00,99.12
2232.00,99.12
2231.00,99.11
2230.00,99.09
2229.00,99.07
2228.00,99.05
2227.00,99.05
2226.00,99.06
2225.00,99.06
2224.00,99.06
2223.00,99.07
2222.00,99.07
2221.00,99.08
2220.00,99.09
2219.00,99.10
2218.00,99.11
2217.00,99.11
2216.00,99.10
2215.00,99.11
2214.00,99.12
2213.00,99.12
2212.00,99.12
2211.00,99.10
2210.00,99.09
2209.00,99.09
2208.00,99.09
2207.00,99.09
2206.00,99.09
2205.00,99.10
2204.00,99.12
2203.00,99.15
2202.00,99.17
2201.00,99.18
2200.00,99.17
2199.00,99.16
2198.00,99.15
2197.00,99.13
2196.00,99.12
2195.00,99.10
2194.00,99.08
2193.00,99.06
2192.00,99.06
2191.00,99.07
2190.00,99.08
2189.00,99.09
2188.00,99.09
2187.00,99.08
2186.00,99.06
2185.00,99.04
2184.00,99.02
2183.00,99.03
2182.00,99.06
2181.00,99.09
2180.00,99.11
2179.00,99.12
2178.00,99.11
2177.00,99.10
2176.00,99.10
2175.00,99.11
2174.00,99.12
2173.00,99.13
2172.00,99.12
2171.00,99.11
2170.00,99.09
2169.00,99.08
2168.00,99.07
2167.00,99.05
2166.00,99.03
2165.00,99.00
2164.00,98.99
2163.00,99.02
2162.00,99.05
2161.00,99.08
2160.00,99.09
2159.00,99.14
2158.00,99.21
2157.00,99.28
2156.00,99.32
2155.00,99.33
2154.00,99.31
2153.00,99.28
2152.00,99.26
2151.00,99.24
2150.00,99.23
2149.00,99.21
2148.00,99.17
2147.00,99.14
2146.00,99.13
2145.00,99.13
2144.00,99.13
2143.00,99.13
2142.00,99.13
2141.00,99.15
2140.00,99.16
2139.00,99.17
2138.00,99.19
2137.00,99.20
2136.00,99.23
2135.00,99.26
2134.00,99.28
2133.00,99.29
2132.00,99.27
2131.00,99.26
2130.00,99.25
2129.00,99.24
2128.00,99.24
2127.00,99.25
2126.00,99.24
2125.00,99.23
2124.00,99.21
2123.00,99.20
2122.00,99.18
2121.00,99.17
2120.00,99.17
2119.00,99.17
2118.00,99.18
2117.00,99.19
2116.00,99.19
2115.00,99.19
2114.00,99.20
2113.00,99.19
2112.00,99.19
2111.00,99.19
2110.00,99.18
2109.00,99.18
2108.00,99.16
2107.00,99.15
2106.00,99.15
2105.00,99.15
2104.00,99.16
2103.00,99.17
2102.00,99.17
2101.00,99.17
2100.00,99.17
2099.00,99.16
2098.00,99.15
2097.00,99.14
2096.00,99.14
2095.00,99.15
2094.00,99.17
2093.00,99.19
2092.00,99.20
2091.00,99.20
2090.00,99.20
2089.00,99.19
2088.00,99.18
2087.00,99.17
2086.00,99.15
2085.00,99.14
2084.00,99.13
2083.00,99.13
2082.00,99.14
2081.00,99.15
2080.00,99.16
2079.00,99.17
2078.00,99.17
2077.00,99.16
2076.00,99.14
2075.00,99.12
2074.00,99.12
2073.00,99.12
2072.00,99.14
2071.00,99.16
2070.00,99.18
2069.00,99.19
2068.00,99.18
2067.00,99.16
2066.00,99.13
2065.00,99.11
2064.00,99.10
2063.00,99.12
2062.00,99.14
2061.00,99.13
2060.00,99.11
2059.00,99.09
2058.00,99.09
2057.00,99.11
2056.00,99.14
2055.00,99.16
2054.00,99.15
2053.00,99.13
2052.00,99.11
2051.00,99.09
2050.00,99.08
2049.00,99.08
2048.00,99.09
2047.00,99.10
2046.00,99.10
2045.00,99.10
2044.00,99.10
2043.00,99.11
2042.00,99.13
2041.00,99.14
2040.00,99.14
2039.00,99.12
2038.00,99.10
2037.00,99.08
2036.00,99.08
2035.00,99.09
2034.00,99.10
2033.00,99.10
2032.00,99.08
2031.00,99.08
2030.00,99.07
2029.00,99.06
2028.00,99.05
2027.00,99.05
2026.00,99.07
2025.00,99.08
2024.00,99.08
2023.00,99.06
2022.00,99.04
2021.00,99.01
2020.00,99.01
2019.00,99.02
2018.00,99.05
2017.00,99.07
2016.00,99.09
2015.00,99.12
2014.00,99.14
2013.00,99.14
2012.00,99.12
2011.00,99.09
2010.00,99.08
2009.00,99.08
2008.00,99.11
2007.00,99.16
2006.00,99.20
2005.00,99.22
2004.00,99.22
2003.00,99.22
2002.00,99.21
2001.00,99.19
2000.00,99.18
1999.00,99.16
1998.00,99.13
1997.00,99.11
1996.00,99.10
1995.00,99.10
1994.00,99.11
1993.00,99.12
1992.00,99.11
1991.00,99.12
1990.00,99.12
1989.00,99.11
1988.00,99.09
1987.00,99.07
1986.00,99.06
1985.00,99.06
1984.00,99.06
1983.00,99.07
1982.00,99.08
1981.00,99.07
1980.00,99.06
1979.00,99.05
1978.00,99.06
1977.00,99.09
1976.00,99.12
1975.00,99.14
1974.00,99.14
1973.00,99.13
1972.00,99.14
1971.00,99.17
1970.00,99.20
1969.00,99.21
1968.00,99.21
1967.00,99.21
1966.00,99.21
1965.00,99.20
1964.00,99.18
1963.00,99.15
1962.00,99.14
1961.00,99.14
1960.00,99.16
1959.00,99.17
1958.00,99.17
1957.00,99.16
1956.00,99.15
1955.00,99.14
1954.00,99.14
1953.00,99.13
1952.00,99.14
1951.00,99.16
1950.00,99.17
1949.00,99.19
1948.00,99.19
1947.00,99.19
1946.00,99.18
1945.00,99.16
1944.00,99.14
1943.00,99.12
1942.00,99.11
1941.00,99.10
1940.00,99.10
1939.00,99.11
1938.00,99.12
1937.00,99.12
1936.00,99.12
1935.00,99.13
1934.00,99.15
1933.00,99.16
1932.00,99.16
1931.00,99.15
1930.00,99.13
1929.00,99.12
1928.00,99.12
1927.00,99.13
1926.00,99.13
1925.00,99.14
1924.00,99.14
1923.00,99.15
1922.00,99.15
1921.00,99.15
1920.00,99.15
1919.00,99.14
1918.00,99.14
1917.00,99.12
1916.00,99.11
1915.00,99.10
1914.00,99.11
1913.00,99.11
1912.00,99.11
1911.00,99.09
1910.00,99.08
1909.00,99.08
1908.00,99.08
1907.00,99.08
1906.00,99.08
1905.00,99.07
1904.00,99.05
1903.00,99.04
1902.00,99.04
1901.00,99.03
1900.00,99.04
1899.00,99.04
1898.00,99.04
1897.00,99.03
1896.00,99.03
1895.00,99.04
1894.00,99.06
1893.00,99.07
1892.00,99.08
1891.00,99.08
1890.00,99.08
1889.00,99.07
1888.00,99.06
1887.00,99.05
1886.00,99.05
1885.00,99.04
1884.00,99.04
1883.00,99.05
1882.00,99.07
1881.00,99.09
1880.00,99.11
1879.00,99.11
1878.00,99.10
1877.00,99.09
1876.00,99.08
1875.00,99.08
1874.00,99.08
1873.00,99.08
1872.00,99.07
1871.00,99.07
1870.00,99.07
1869.00,99.08
1868.00,99.08
1867.00,99.08
1866.00,99.07
1865.00,99.06
1864.00,99.05
1863.00,99.06
1862.00,99.08
1861.00,99.09
1860.00,99.10
1859.00,99.11
1858.00,99.11
1857.00,99.11
1856.00,99.10
1855.00,99.09
1854.00,99.09
1853.00,99.08
1852.00,99.08
1851.00,99.08
1850.00,99.08
1849.00,99.08
1848.00,99.08
1847.00,99.07
1846.00,99.07
1845.00,99.07
1844.00,99.07
1843.00,99.06
1842.00,99.06
1841.00,99.06
1840.00,99.05
1839.00,99.05
1838.00,99.04
1837.00,99.04
1836.00,99.03
1835.00,99.02
1834.00,99.02
1833.00,99.01
1832.00,99.00
1831.00,98.99
1830.00,98.98
1829.00,98.98
1828.00,98.98
1827.00,98.98
1826.00,98.98
1825.00,98.98
1824.00,98.98
1823.00,98.98
1822.00,98.98
1821.00,98.98
1820.00,98.99
1819.00,98.99
1818.00,99.00
1817.00,99.00
1816.00,98.99
1815.00,98.98
1814.00,98.97
1813.00,98.96
1812.00,98.96
1811.00,98.95
1810.00,98.95
1809.00,98.95
1808.00,98.94
1807.00,98.93
1806.00,98.92
1805.00,98.91
1804.00,98.90
1803.00,98.89
1802.00,98.88
1801.00,98.87
1800.00,98.86
1799.00,98.86
1798.00,98.85
1797.00,98.84
1796.00,98.83
1795.00,98.80
1794.00,98.78
1793.00,98.76
1792.00,98.75
1791.00,98.73
1790.00,98.71
1789.00,98.69
1788.00,98.67
1787.00,98.65
1786.00,98.63
1785.00,98.61
1784.00,98.59
1783.00,98.57
1782.00,98.56
1781.00,98.54
1780.00,98.53
1779.00,98.51
1778.00,98.50
1777.00,98.48
1776.00,98.46
1775.00,98.44
1774.00,98.42
1773.00,98.40
1772.00,98.38
1771.00,98.36
1770.00,98.34
1769.00,98.32
1768.00,98.31
1767.00,98.31
1766.00,98.30
1765.00,98.27
1764.00,98.24
1763.00,98.20
1762.00,98.17
1761.00,98.14
1760.00,98.11
1759.00,98.07
1758.00,98.03
1757.00,97.99
1756.00,97.95
1755.00,97.90
1754.00,97.85
1753.00,97.78
1752.00,97.71
1751.00,97.62
1750.00,97.53
1749.00,97.42
1748.00,97.32
1747.00,97.21
1746.00,97.11
1745.00,97.00
1744.00,96.89
1743.00,96.78
1742.00,96.68
1741.00,96.57
1740.00,96.46
1739.00,96.36
1738.00,96.29
1737.00,96.22
1736.00,96.14
1735.00,96.06
1734.00,95.96
1733.00,95.86
1732.00,95.77
1731.00,95.70
1730.00,95.62
1729.00,95.53
1728.00,95.41
1727.00,95.27
1726.00,95.10
1725.00,94.89
1724.00,94.66
1723.00,94.41
1722.00,94.16
1721.00,93.91
1720.00,93.64
1719.00,93.32
1718.00,92.95
1717.00,92.59
1716.00,92.27
1715.00,92.02
1714.00,91.82
1713.00,91.69
1712.00,91.61
1711.00,91.57
1710.00,91.55
1709.00,91.55
1708.00,91.57
1707.00,91.59
1706.00,91.62
1705.00,91.65
1704.00,91.70
1703.00,91.75
1702.00,91.79
1701.00,91.80
1700.00,91.78
1699.00,91.78
1698.00,91.83
1697.00,91.94
1696.00,92.11
1695.00,92.31
1694.00,92.52
1693.00,92.73
1692.00,92.94
1691.00,93.16
1690.00,93.38
1689.00,93.58
1688.00,93.77
1687.00,93.95
1686.00,94.13
1685.00,94.31
1684.00,94.50
1683.00,94.68
1682.00,94.84
1681.00,95.02
1680.00,95.22
1679.00,95.40
1678.00,95.57
1677.00,95.73
1676.00,95.89
1675.00,96.05
1674.00,96.18
1673.00,96.30
1672.00,96.42
1671.00,96.53
1670.00,96.65
1669.00,96.76
1668.00,96.86
1667.00,96.95
1666.00,97.03
1665.00,97.11
1664.00,97.19
1663.00,97.27
1662.00,97.34
1661.00,97.39
1660.00,97.45
1659.00,97.50
1658.00,97.55
1657.00,97.60
1656.00,97.64
1655.00,97.68
1654.00,97.72
1653.00,97.76
1652.00,97.81
1651.00,97.83
1650.00,97.84
1649.00,97.86
1648.00,97.90
1647.00,97.93
1646.00,97.95
1645.00,97.98
1644.00,98.01
1643.00,98.04
1642.00,98.07
1641.00,98.10
1640.00,98.12
1639.00,98.13
1638.00,98.14
1637.00,98.15
1636.00,98.16
1635.00,98.18
1634.00,98.19
1633.00,98.21
1632.00,98.23
1631.00,98.25
1630.00,98.27
1629.00,98.29
1628.00,98.31
1627.00,98.31
1626.00,98.32
1625.00,98.32
1624.00,98.33
1623.00,98.35
1622.00,98.37
1621.00,98.38
1620.00,98.39
1619.00,98.40
1618.00,98.41
1617.00,98.43
1616.00,98.44
1615.00,98.44
1614.00,98.44
1613.00,98.45
1612.00,98.46
1611.00,98.48
1610.00,98.49
1609.00,98.49
1608.00,98.50
1607.00,98.51
1606.00,98.52
1605.00,98.53
1604.00,98.54
1603.00,98.54
1602.00,98.55
1601.00,98.56
1600.00,98.57
1599.00,98.58
1598.00,98.58
1597.00,98.58
1596.00,98.58
1595.00,98.58
1594.00,98.59
1593.00,98.60
1592.00,98.61
1591.00,98.62
1590.00,98.64
1589.00,98.65
1588.00,98.66
1587.00,98.68
1586.00,98.70
1585.00,98.73
1584.00,98.75
1583.00,98.78
1582.00,98.81
1581.00,98.83
1580.00,98.84
1579.00,98.84
1578.00,98.84
1577.00,98.84
1576.00,98.85
1575.00,98.87
1574.00,98.87
1573.00,98.86
1572.00,98.85
1571.00,98.85
1570.00,98.85
1569.00,98.86
1568.00,98.86
1567.00,98.86
1566.00,98.86
1565.00,98.86
1564.00,98.87
1563.00,98.88
1562.00,98.88
1561.00,98.88
1560.00,98.88
1559.00,98.88
1558.00,98.88
1557.00,98.88
1556.00,98.88
1555.00,98.90
1554.00,98.92
1553.00,98.95
1552.00,98.96
1551.00,98.97
1550.00,98.99
1549.00,99.02
1548.00,99.05
1547.00,99.07
1546.00,99.10
1545.00,99.12
1544.00,99.14
1543.00,99.14
1542.00,99.15
1541.00,99.15
1540.00,99.14
1539.00,99.14
1538.00,99.13
1537.00,99.11
1536.00,99.09
1535.00,99.07
1534.00,99.07
1533.00,99.05
1532.00,99.03
1531.00,99.01
1530.00,99.00
1529.00,98.99
1528.00,98.99
1527.00,98.99
1526.00,98.99
1525.00,98.98
1524.00,98.95
1523.00,98.93
1522.00,98.92
1521.00,98.92
1520.00,98.92
1519.00,98.92
1518.00,98.92
1517.00,98.92
1516.00,98.92
1515.00,98.92
1514.00,98.92
1513.00,98.92
1512.00,98.91
1511.00,98.91
1510.00,98.90
1509.00,98.88
1508.00,98.86
1507.00,98.84
1506.00,98.84
1505.00,98.85
1504.00,98.84
1503.00,98.83
1502.00,98.83
1501.00,98.83
1500.00,98.83
1499.00,98.82
1498.00,98.80
1497.00,98.78
1496.00,98.76
1495.00,98.75
1494.00,98.73
1493.00,98.69
1492.00,98.66
1491.00,98.64
1490.00,98.61
1489.00,98.57
1488.00,98.53
1487.00,98.51
1486.00,98.49
1485.00,98.44
1484.00,98.36
1483.00,98.26
1482.00,98.11
1481.00,97.90
1480.00,97.59
1479.00,97.09
1478.00,96.20
1477.00,94.68
1476.00,92.44
1475.00,89.72
1474.00,87.16
1473.00,85.72
1472.00,85.96
1471.00,87.49
1470.00,89.38
1469.00,90.99
1468.00,92.08
1467.00,92.56
1466.00,92.27
1465.00,91.26
1464.00,90.00
1463.00,89.23
1462.00,89.41
1461.00,90.48
1460.00,92.03
1459.00,93.57
1458.00,94.80
1457.00,95.63
1456.00,96.14
1455.00,96.45
1454.00,96.66
1453.00,96.84
1452.00,96.99
1451.00,97.10
1450.00,97.17
1449.00,97.22
1448.00,97.26
1447.00,97.27
1446.00,97.27
1445.00,97.26
1444.00,97.24
1443.00,97.20
1442.00,97.14
1441.00,97.09
1440.00,97.03
1439.00,96.97
1438.00,96.89
1437.00,96.81
1436.00,96.72
1435.00,96.64
1434.00,96.58
1433.00,96.52
1432.00,96.46
1431.00,96.37
1430.00,96.27
1429.00,96.18
1428.00,96.12
1427.00,96.08
1426.00,96.04
1425.00,95.99
1424.00,95.93
1423.00,95.85
1422.00,95.76
1421.00,95.67
1420.00,95.57
1419.00,95.48
1418.00,95.40
1417.00,95.35
1416.00,95.32
1415.00,95.29
1414.00,95.27
1413.00,95.27
1412.00,95.29
1411.00,95.34
1410.00,95.44
1409.00,95.57
1408.00,95.72
1407.00,95.89
1406.00,96.05
1405.00,96.22
1404.00,96.39
1403.00,96.55
1402.00,96.69
1401.00,96.83
1400.00,96.96
1399.00,97.07
1398.00,97.17
1397.00,97.25
1396.00,97.33
1395.00,97.41
1394.00,97.48
1393.00,97.54
1392.00,97.59
1391.00,97.63
1390.00,97.66
1389.00,97.69
1388.00,97.72
1387.00,97.74
1386.00,97.75
1385.00,97.77
1384.00,97.77
1383.00,97.77
1382.00,97.76
1381.00,97.74
1380.00,97.71
1379.00,97.67
1378.00,97.64
1377.00,97.62
1376.00,97.61
1375.00,97.59
1374.00,97.58
1373.00,97.58
1372.00,97.58
1371.00,97.59
1370.00,97.60
1369.00,97.61
1368.00,97.62
1367.00,97.63
1366.00,97.64
1365.00,97.65
1364.00,97.66
1363.00,97.67
1362.00,97.67
1361.00,97.68
1360.00,97.69
1359.00,97.70
1358.00,97.70
1357.00,97.70
1356.00,97.70
1355.00,97.70
1354.00,97.70
1353.00,97.70
1352.00,97.69
1351.00,97.68
1350.00,97.66
1349.00,97.64
1348.00,97.61
1347.00,97.59
1346.00,97.56
1345.00,97.53
1344.00,97.48
1343.00,97.42
1342.00,97.36
1341.00,97.30
1340.00,97.24
1339.00,97.18
1338.00,97.13
1337.00,97.08
1336.00,97.04
1335.00,97.00
1334.00,96.96
1333.00,96.91
1332.00,96.86
1331.00,96.81
1330.00,96.77
1329.00,96.73
1328.00,96.70
1327.00,96.67
1326.00,96.64
1325.00,96.63
1324.00,96.62
1323.00,96.62
1322.00,96.61
1321.00,96.61
1320.00,96.59
1319.00,96.56
1318.00,96.51
1317.00,96.46
1316.00,96.40
1315.00,96.34
1314.00,96.27
1313.00,96.20
1312.00,96.14
1311.00,96.09
1310.00,96.05
1309.00,96.03
1308.00,96.03
1307.00,96.03
1306.00,96.04
1305.00,96.06
1304.00,96.09
1303.00,96.11
1302.00,96.13
1301.00,96.15
1300.00,96.17
1299.00,96.19
1298.00,96.21
1297.00,96.23
1296.00,96.24
1295.00,96.26
1294.00,96.29
1293.00,96.32
1292.00,96.35
1291.00,96.39
1290.00,96.43
1289.00,96.47
1288.00,96.52
1287.00,96.58
1286.00,96.64
1285.00,96.71
1284.00,96.77
1283.00,96.83
1282.00,96.88
1281.00,96.94
1280.00,96.99
1279.00,97.04
1278.00,97.09
1277.00,97.13
1276.00,97.16
1275.00,97.18
1274.00,97.20
1273.00,97.21
1272.00,97.23
1271.00,97.24
1270.00,97.26
1269.00,97.28
1268.00,97.30
1267.00,97.33
1266.00,97.35
1265.00,97.37
1264.00,97.39
1263.00,97.42
1262.00,97.44
1261.00,97.46
1260.00,97.48
1259.00,97.50
1258.00,97.52
1257.00,97.54
1256.00,97.56
1255.00,97.58
1254.00,97.60
1253.00,97.62
1252.00,97.65
1251.00,97.67
1250.00,97.69
1249.00,97.70
1248.00,97.70
1247.00,97.70
1246.00,97.70
1245.00,97.69
1244.00,97.69
1243.00,97.69
1242.00,97.69
1241.00,97.69
1240.00,97.69
1239.00,97.69
1238.00,97.68
1237.00,97.67
1236.00,97.67
1235.00,97.66
1234.00,97.65
1233.00,97.63
1232.00,97.62
1231.00,97.60
1230.00,97.58
1229.00,97.55
1228.00,97.53
1227.00,97.50
1226.00,97.46
1225.00,97.42
1224.00,97.36
1223.00,97.29
1222.00,97.21
1221.00,97.13
1220.00,97.04
1219.00,96.94
1218.00,96.84
1217.00,96.75
1216.00,96.65
1215.00,96.57
1214.00,96.50
1213.00,96.45
1212.00,96.41
1211.00,96.35
1210.00,96.25
1209.00,96.10
1208.00,95.91
1207.00,95.69
1206.00,95.47
1205.00,95.26
1204.00,95.10
1203.00,94.98
1202.00,94.91
1201.00,94.90
1200.00,94.94
1199.00,95.00
1198.00,95.08
1197.00,95.17
1196.00,95.26
1195.00,95.37
1194.00,95.49
1193.00,95.63
1192.00,95.77
1191.00,95.92
1190.00,96.05
1189.00,96.16
1188.00,96.25
1187.00,96.32
1186.00,96.38
1185.00,96.42
1184.00,96.45
1183.00,96.46
1182.00,96.43
1181.00,96.37
1180.00,96.28
1179.00,96.19
1178.00,96.14
1177.00,96.16
1176.00,96.24
1175.00,96.35
1174.00,96.45
1173.00,96.54
1172.00,96.61
1171.00,96.66
1170.00,96.70
1169.00,96.74
1168.00,96.77
1167.00,96.80
1166.00,96.83
1165.00,96.86
1164.00,96.90
1163.00,96.93
1162.00,96.97
1161.00,97.01
1160.00,97.06
1159.00,97.11
1158.00,97.16
1157.00,97.21
1156.00,97.27
1155.00,97.32
1154.00,97.37
1153.00,97.41
1152.00,97.46
1151.00,97.51
1150.00,97.57
1149.00,97.62
1148.00,97.67
1147.00,97.70
1146.00,97.74
1145.00,97.77
1144.00,97.80
1143.00,97.84
1142.00,97.87
1141.00,97.90
1140.00,97.93
1139.00,97.94
1138.00,97.96
1137.00,97.97
1136.00,97.99
1135.00,98.01
1134.00,98.01
1133.00,98.01
1132.00,98.01
1131.00,98.01
1130.00,98.01
1129.00,98.01
1128.00,98.00
1127.00,98.00
1126.00,97.99
1125.00,98.00
1124.00,98.00
1123.00,98.01
1122.00,98.01
1121.00,98.01
1120.00,98.00
1119.00,97.99
1118.00,97.97
1117.00,97.96
1116.00,97.96
1115.00,97.95
1114.00,97.94
1113.00,97.94
1112.00,97.93
1111.00,97.93
1110.00,97.93
1109.00,97.93
1108.00,97.93
1107.00,97.92
1106.00,97.92
1105.00,97.93
1104.00,97.93
1103.00,97.94
1102.00,97.93
1101.00,97.93
1100.00,97.93
1099.00,97.94
1098.00,97.95
1097.00,97.96
1096.00,97.97
1095.00,97.99
1094.00,98.00
1093.00,98.01
1092.00,98.02
1091.00,98.03
1090.00,98.03
1089.00,98.04
1088.00,98.04
1087.00,98.05
1086.00,98.06
1085.00,98.07
1084.00,98.09
1083.00,98.10
1082.00,98.10
1081.00,98.10
1080.00,98.10
1079.00,98.10
1078.00,98.11
1077.00,98.12
1076.00,98.13
1075.00,98.14
1074.00,98.14
1073.00,98.15
1072.00,98.15
1071.00,98.14
1070.00,98.13
1069.00,98.13
1068.00,98.13
1067.00,98.13
1066.00,98.13
1065.00,98.14
1064.00,98.14
1063.00,98.15
1062.00,98.15
1061.00,98.16
1060.00,98.16
1059.00,98.16
1058.00,98.15
1057.00,98.14
1056.00,98.13
1055.00,98.12
1054.00,98.12
1053.00,98.11
1052.00,98.09
1051.00,98.07
1050.00,98.06
1049.00,98.05
1048.00,98.04
1047.00,98.05
1046.00,98.05
1045.00,98.06
1044.00,98.07
1043.00,98.08
1042.00,98.09
1041.00,98.11
1040.00,98.13
1039.00,98.14
1038.00,98.15
1037.00,98.16
1036.00,98.18
1035.00,98.19
1034.00,98.20
1033.00,98.20
1032.00,98.21
1031.00,98.22
1030.00,98.23
1029.00,98.24
1028.00,98.25
1027.00,98.26
1026.00,98.27
1025.00,98.29
1024.00,98.32
1023.00,98.37
1022.00,98.41
1021.00,98.46
1020.00,98.50
1019.00,98.55
1018.00,98.59
1017.00,98.62
1016.00,98.62
1015.00,98.60
1014.00,98.56
1013.00,98.51
1012.00,98.46
1011.00,98.41
1010.00,98.37
1009.00,98.32
1008.00,98.29
1007.00,98.26
1006.00,98.23
1005.00,98.22
1004.00,98.21
1003.00,98.20
1002.00,98.18
1001.00,98.16
1000.00,98.15
999.00,98.14
998.00,98.12
997.00,98.10
996.00,98.07
995.00,98.05
994.00,98.04
993.00,98.03
992.00,98.02
991.00,98.00
990.00,97.98
989.00,97.96
988.00,97.93
987.00,97.90
986.00,97.88
985.00,97.85
984.00,97.81
983.00,97.77
982.00,97.74
981.00,97.72
980.00,97.69
979.00,97.66
978.00,97.63
977.00,97.60
976.00,97.56
975.00,97.52
974.00,97.50
973.00,97.47
972.00,97.44
971.00,97.40
970.00,97.35
969.00,97.29
968.00,97.24
967.00,97.19
966.00,97.14
965.00,97.10
964.00,97.06
963.00,97.02
962.00,96.98
961.00,96.94
960.00,96.91
959.00,96.87
958.00,96.82
957.00,96.78
956.00,96.73
955.00,96.68
954.00,96.64
953.00,96.60
952.00,96.57
951.00,96.54
950.00,96.51
949.00,96.47
948.00,96.43
947.00,96.40
946.00,96.36
945.00,96.34
944.00,96.31
943.00,96.28
942.00,96.26
941.00,96.23
940.00,96.21
939.00,96.19
938.00,96.16
937.00,96.13
936.00,96.10
935.00,96.08
934.00,96.06
933.00,96.03
932.00,96.01
931.00,95.98
930.00,95.96
929.00,95.94
928.00,95.92
927.00,95.92
926.00,95.92
925.00,95.93
924.00,95.93
923.00,95.94
922.00,95.94
921.00,95.95
920.00,95.97
919.00,95.98
918.00,95.99
917.00,95.99
916.00,96.01
915.00,96.02
914.00,96.04
913.00,96.06
912.00,96.09
911.00,96.14
910.00,96.18
909.00,96.22
908.00,96.25
907.00,96.26
906.00,96.28
905.00,96.32
904.00,96.36
903.00,96.40
902.00,96.42
901.00,96.44
900.00,96.46
899.00,96.46
898.00,96.45
897.00,96.44
896.00,96.43
895.00,96.43
894.00,96.44
893.00,96.47
892.00,96.50
891.00,96.53
890.00,96.58
889.00,96.62
888.00,96.67
887.00,96.72
886.00,96.77
885.00,96.82
884.00,96.86
883.00,96.90
882.00,96.93
881.00,96.98
880.00,97.03
879.00,97.08
878.00,97.11
877.00,97.14
876.00,97.17
875.00,97.18
874.00,97.19
873.00,97.20
872.00,97.21
871.00,97.24
870.00,97.27
869.00,97.29
868.00,97.31
867.00,97.31
866.00,97.31
865.00,97.32
864.00,97.34
863.00,97.37
862.00,97.40
861.00,97.41
860.00,97.42
859.00,97.42
858.00,97.43
857.00,97.43
856.00,97.45
855.00,97.46
854.00,97.46
853.00,97.47
852.00,97.47
851.00,97.49
850.00,97.51
849.00,97.52
848.00,97.51
847.00,97.51
846.00,97.50
845.00,97.52
844.00,97.55
843.00,97.57
842.00,97.58
841.00,97.57
840.00,97.56
839.00,97.56
838.00,97.57
837.00,97.58
836.00,97.58
835.00,97.59
834.00,97.60
833.00,97.62
832.00,97.63
831.00,97.63
830.00,97.63
829.00,97.62
828.00,97.62
827.00,97.60
826.00,97.59
825.00,97.58
824.00,97.58
823.00,97.59
822.00,97.59
821.00,97.57
820.00,97.52
819.00,97.45
818.00,97.37
817.00,97.29
816.00,97.23
815.00,97.20
814.00,97.19
813.00,97.22
812.00,97.25
811.00,97.29
810.00,97.31
809.00,97.31
808.00,97.28
807.00,97.23
806.00,97.16
805.00,97.09
804.00,97.04
803.00,97.03
802.00,97.06
801.00,97.14
800.00,97.24
799.00,97.36
798.00,97.47
797.00,97.56
796.00,97.64
795.00,97.70
794.00,97.74
793.00,97.77
792.00,97.78
791.00,97.79
790.00,97.79
789.00,97.80
788.00,97.80
787.00,97.81
786.00,97.81
785.00,97.83
784.00,97.85
783.00,97.87
782.00,97.87
781.00,97.85
780.00,97.84
779.00,97.84
778.00,97.84
777.00,97.85
776.00,97.86
775.00,97.87
774.00,97.87
773.00,97.88
772.00,97.90
771.00,97.91
770.00,97.90
769.00,97.89
768.00,97.89
767.00,97.92
766.00,97.95
765.00,97.96
764.00,97.97
763.00,97.98
762.00,97.98
761.00,97.97
760.00,97.98
759.00,97.99
758.00,98.00
757.00,98.01
756.00,98.01
755.00,98.01
754.00,97.99
753.00,97.97
752.00,97.96
751.00,97.96
750.00,97.98
749.00,98.00
748.00,98.02
747.00,98.02
746.00,97.99
745.00,97.95
744.00,97.91
743.00,97.89
742.00,97.85
741.00,97.80
740.00,97.73
739.00,97.61
738.00,97.42
737.00,97.09
736.00,96.55
735.00,95.63
734.00,94.16
733.00,92.22
732.00,90.29
731.00,89.05
730.00,88.94
729.00,89.85
728.00,91.20
727.00,92.38
726.00,93.08
725.00,93.24
724.00,92.84
723.00,91.79
722.00,90.04
721.00,87.78
720.00,85.59
719.00,84.12
718.00,83.68
717.00,84.20
716.00,85.46
715.00,87.20
714.00,89.11
713.00,90.86
712.00,92.25
711.00,93.26
710.00,93.97
709.00,94.50
708.00,94.90
707.00,95.20
706.00,95.45
705.00,95.67
704.00,95.84
703.00,95.97
702.00,96.10
701.00,96.21
700.00,96.31
699.00,96.39
698.00,96.46
697.00,96.53
696.00,96.58
695.00,96.62
694.00,96.65
693.00,96.67
692.00,96.66
691.00,96.63
690.00,96.61
689.00,96.61
688.00,96.62
687.00,96.61
686.00,96.61
685.00,96.66
684.00,96.72
683.00,96.78
682.00,96.81
681.00,96.82
680.00,96.84
679.00,96.84
678.00,96.85
677.00,96.85
676.00,96.85
675.00,96.86
674.00,96.88
673.00,96.92
672.00,96.96
671.00,96.98
670.00,96.96
669.00,96.94
668.00,96.93
667.00,96.96
666.00,97.00
665.00,97.04
664.00,97.07
663.00,97.06
662.00,97.02
661.00,96.97
660.00,96.92
659.00,96.89
658.00,96.89
657.00,96.90
656.00,96.89
655.00,96.86
654.00,96.83
653.00,96.80
652.00,96.79
651.00,96.77
650.00,96.74
