Created as New Dataset,PE powder 1.8kDa Alfa Aesar
cm-1,%T
4000.00,99.84
3999.00,99.84
3998.00,99.84
3997.00,99.84
3996.00,99.84
3995.00,99.84
3994.00,99.84
3993.00,99.84
3992.00,99.84
3991.00,99.84
3990.00,99.83
3989.00,99.83
3988.00,99.83
3987.00,99.83
3986.00,99.83
3985.00,99.83
3984.00,99.83
3983.00,99.83
3982.00,99.83
3981.00,99.83
3980.00,99.83
3979.00,99.83
3978.00,99.83
3977.00,99.83
3976.00,99.83
3975.00,99.83
3974.00,99.83
3973.00,99.83
3972.00,99.83
3971.00,99.84
3970.00,99.84
3969.00,99.84
3968.00,99.84
3967.00,99.84
3966.00,99.84
3965.00,99.84
3964.00,99.84
3963.00,99.84
3962.00,99.84
3961.00,99.84
3960.00,99.84
3959.00,99.84
3958.00,99.84
3957.00,99.84
3956.00,99.84
3955.00,99.84
3954.00,99.84
3953.00,99.83
3952.00,99.83
3951.00,99.83
3950.00,99.83
3949.00,99.83
3948.00,99.83
3947.00,99.83
3946.00,99.82
3945.00,99.82
3944.00,99.82
3943.00,99.83
3942.00,99.83
3941.00,99.84
3940.00,99.84
3939.00,99.84
3938.00,99.83
3937.00,99.83
3936.00,99.82
3935.00,99.82
3934.00,99.82
3933.00,99.81
3932.00,99.81
3931.00,99.81
3930.00,99.81
3929.00,99.81
3928.00,99.82
3927.00,99.82
3926.00,99.81
3925.00,99.81
3924.00,99.80
3923.00,99.80
3922.00,99.79
3921.00,99.79
3920.00,99.79
3919.00,99.79
3918.00,99.80
3917.00,99.80
3916.00,99.80
3915.00,99.80
3914.00,99.80
3913.00,99.80
3912.00,99.80
3911.00,99.80
3910.00,99.80
3909.00,99.81
3908.00,99.80
3907.00,99.80
3906.00,99.80
3905.00,99.79
3904.00,99.79
3903.00,99.79
3902.00,99.79
3901.00,99.78
3900.00,99.79
3899.00,99.79
3898.00,99.79
3897.00,99.79
3896.00,99.79
3895.00,99.78
3894.00,99.78
3893.00,99.78
3892.00,99.79
3891.00,99.80
3890.00,99.80
3889.00,99.80
3888.00,99.79
3887.00,99.79
3886.00,99.79
3885.00,99.79
3884.00,99.79
3883.00,99.78
3882.00,99.78
3881.00,99.78
3880.00,99.79
3879.00,99.79
3878.00,99.78
3877.00,99.78
3876.00,99.78
3875.00,99.79
3874.00,99.79
3873.00,99.79
3872.00,99.78
3871.00,99.79
3870.00,99.79
3869.00,99.80
3868.00,99.80
3867.00,99.80
3866.00,99.80
3865.00,99.80
3864.00,99.81
3863.00,99.81
3862.00,99.81
3861.00,99.81
3860.00,99.82
3859.00,99.82
3858.00,99.83
3857.00,99.83
3856.00,99.82
3855.00,99.82
3854.00,99.82
3853.00,99.82
3852.00,99.82
3851.00,99.81
3850.00,99.81
3849.00,99.81
3848.00,99.81
3847.00,99.81
3846.00,99.81
3845.00,99.81
3844.00,99.82
3843.00,99.82
3842.00,99.82
3841.00,99.82
3840.00,99.82
3839.00,99.81
3838.00,99.81
3837.00,99.80
3836.00,99.80
3835.00,99.80
3834.00,99.80
3833.00,99.80
3832.00,99.80
3831.00,99.80
3830.00,99.80
3829.00,99.80
3828.00,99.80
3827.00,99.80
3826.00,99.80
3825.00,99.80
3824.00,99.79
3823.00,99.78
3822.00,99.79
3821.00,99.80
3820.00,99.80
3819.00,99.80
3818.00,99.79
3817.00,99.80
3816.00,99.80
3815.00,99.80
3814.00,99.79
3813.00,99.79
3812.00,99.79
3811.00,99.80
3810.00,99.80
3809.00,99.81
3808.00,99.81
3807.00,99.81
3806.00,99.81
3805.00,99.81
3804.00,99.81
3803.00,99.81
3802.00,99.81
3801.00,99.82
3800.00,99.81
3799.00,99.80
3798.00,99.80
3797.00,99.80
3796.00,99.81
3795.00,99.81
3794.00,99.81
3793.00,99.81
3792.00,99.81
3791.00,99.82
3790.00,99.82
3789.00,99.82
3788.00,99.81
3787.00,99.81
3786.00,99.81
3785.00,99.81
3784.00,99.81
3783.00,99.80
3782.00,99.80
3781.00,99.80
3780.00,99.81
3779.00,99.81
3778.00,99.81
3777.00,99.81
3776.00,99.81
3775.00,99.81
3774.00,99.81
3773.00,99.81
3772.00,99.80
3771.00,99.80
3770.00,99.81
3769.00,99.81
3768.00,99.80
3767.00,99.80
3766.00,99.81
3765.00,99.81
3764.00,99.81
3763.00,99.80
3762.00,99.80
3761.00,99.80
3760.00,99.80
3759.00,99.80
3758.00,99.80
3757.00,99.80
3756.00,99.81
3755.00,99.81
3754.00,99.82
3753.00,99.82
3752.00,99.82
3751.00,99.82
3750.00,99.83
3749.00,99.82
3748.00,99.81
3747.00,99.80
3746.00,99.80
3745.00,99.81
3744.00,99.82
3743.00,99.81
3742.00,99.79
3741.00,99.78
3740.00,99.78
3739.00,99.79
3738.00,99.80
3737.00,99.81
3736.00,99.81
3735.00,99.81
3734.00,99.81
3733.00,99.81
3732.00,99.81
3731.00,99.82
3730.00,99.82
3729.00,99.82
3728.00,99.81
3727.00,99.81
3726.00,99.81
3725.00,99.81
3724.00,99.80
3723.00,99.81
3722.00,99.81
3721.00,99.81
3720.00,99.81
3719.00,99.81
3718.00,99.82
3717.00,99.82
3716.00,99.82
3715.00,99.82
3714.00,99.82
3713.00,99.82
3712.00,99.82
3711.00,99.82
3710.00,99.82
3709.00,99.82
3708.00,99.82
3707.00,99.82
3706.00,99.82
3705.00,99.82
3704.00,99.82
3703.00,99.82
3702.00,99.82
3701.00,99.82
3700.00,99.82
3699.00,99.81
3698.00,99.81
3697.00,99.81
3696.00,99.81
3695.00,99.81
3694.00,99.81
3693.00,99.82
3692.00,99.81
3691.00,99.81
3690.00,99.80
3689.00,99.80
3688.00,99.80
3687.00,99.79
3686.00,99.79
3685.00,99.80
3684.00,99.80
3683.00,99.80
3682.00,99.80
3681.00,99.81
3680.00,99.81
3679.00,99.81
3678.00,99.81
3677.00,99.81
3676.00,99.82
3675.00,99.82
3674.00,99.82
3673.00,99.81
3672.00,99.80
3671.00,99.80
3670.00,99.81
3669.00,99.81
3668.00,99.80
3667.00,99.80
3666.00,99.79
3665.00,99.79
3664.00,99.79
3663.00,99.79
3662.00,99.79
3661.00,99.79
3660.00,99.79
3659.00,99.79
3658.00,99.79
3657.00,99.79
3656.00,99.79
3655.00,99.79
3654.00,99.79
3653.00,99.78
3652.00,99.78
3651.00,99.77
3650.00,99.76
3649.00,99.75
3648.00,99.75
3647.00,99.75
3646.00,99.75
3645.00,99.75
3644.00,99.75
3643.00,99.75
3642.00,99.76
3641.00,99.76
3640.00,99.77
3639.00,99.78
3638.00,99.78
3637.00,99.79
3636.00,99.79
3635.00,99.79
3634.00,99.79
3633.00,99.79
3632.00,99.79
3631.00,99.79
3630.00,99.78
3629.00,99.78
3628.00,99.76
3627.00,99.74
3626.00,99.73
3625.00,99.71
3624.00,99.70
3623.00,99.68
3622.00,99.66
3621.00,99.64
3620.00,99.63
3619.00,99.62
3618.00,99.61
3617.00,99.60
3616.00,99.59
3615.00,99.59
3614.00,99.58
3613.00,99.58
3612.00,99.58
3611.00,99.59
3610.00,99.59
3609.00,99.60
3608.00,99.62
3607.00,99.62
3606.00,99.63
3605.00,99.63
3604.00,99.64
3603.00,99.65
3602.00,99.66
3601.00,99.68
3600.00,99.70
3599.00,99.72
3598.00,99.73
3597.00,99.75
3596.00,99.76
3595.00,99.77
3594.00,99.78
3593.00,99.79
3592.00,99.80
3591.00,99.81
3590.00,99.81
3589.00,99.82
3588.00,99.82
3587.00,99.82
3586.00,99.82
3585.00,99.82
3584.00,99.82
3583.00,99.83
3582.00,99.83
3581.00,99.84
3580.00,99.84
3579.00,99.85
3578.00,99.85
3577.00,99.85
3576.00,99.85
3575.00,99.85
3574.00,99.85
3573.00,99.84
3572.00,99.84
3571.00,99.83
3570.00,99.83
3569.00,99.83
3568.00,99.83
3567.00,99.83
3566.00,99.83
3565.00,99.84
3564.00,99.84
3563.00,99.84
3562.00,99.84
3561.00,99.84
3560.00,99.84
3559.00,99.83
3558.00,99.83
3557.00,99.83
3556.00,99.83
3555.00,99.83
3554.00,99.83
3553.00,99.83
3552.00,99.83
3551.00,99.83
3550.00,99.83
3549.00,99.83
3548.00,99.83
3547.00,99.83
3546.00,99.83
3545.00,99.82
3544.00,99.82
3543.00,99.81
3542.00,99.81
3541.00,99.81
3540.00,99.80
3539.00,99.80
3538.00,99.80
3537.00,99.81
3536.00,99.81
3535.00,99.81
3534.00,99.81
3533.00,99.80
3532.00,99.80
3531.00,99.80
3530.00,99.80
3529.00,99.80
3528.00,99.79
3527.00,99.78
3526.00,99.77
3525.00,99.77
3524.00,99.77
3523.00,99.77
3522.00,99.77
3521.00,99.77
3520.00,99.77
3519.00,99.77
3518.00,99.77
3517.00,99.76
3516.00,99.76
3515.00,99.75
3514.00,99.75
3513.00,99.75
3512.00,99.75
3511.00,99.75
3510.00,99.74
3509.00,99.74
3508.00,99.73
3507.00,99.73
3506.00,99.72
3505.00,99.72
3504.00,99.72
3503.00,99.72
3502.00,99.72
3501.00,99.72
3500.00,99.72
3499.00,99.72
3498.00,99.72
3497.00,99.72
3496.00,99.71
3495.00,99.71
3494.00,99.71
3493.00,99.71
3492.00,99.71
3491.00,99.71
3490.00,99.71
3489.00,99.71
3488.00,99.71
3487.00,99.71
3486.00,99.71
3485.00,99.71
3484.00,99.71
3483.00,99.70
3482.00,99.70
3481.00,99.70
3480.00,99.70
3479.00,99.70
3478.00,99.70
3477.00,99.70
3476.00,99.69
3475.00,99.69
3474.00,99.69
3473.00,99.69
3472.00,99.68
3471.00,99.69
3470.00,99.69
3469.00,99.69
3468.00,99.69
3467.00,99.68
3466.00,99.68
3465.00,99.68
3464.00,99.68
3463.00,99.68
3462.00,99.68
3461.00,99.68
3460.00,99.68
3459.00,99.68
3458.00,99.68
3457.00,99.68
3456.00,99.67
3455.00,99.67
3454.00,99.67
3453.00,99.67
3452.00,99.67
3451.00,99.67
3450.00,99.66
3449.00,99.66
3448.00,99.65
3447.00,99.65
3446.00,99.64
3445.00,99.64
3444.00,99.64
3443.00,99.65
3442.00,99.65
3441.00,99.65
3440.00,99.65
3439.00,99.65
3438.00,99.65
3437.00,99.65
3436.00,99.65
3435.00,99.64
3434.00,99.64
3433.00,99.64
3432.00,99.63
3431.00,99.63
3430.00,99.63
3429.00,99.63
3428.00,99.64
3427.00,99.64
3426.00,99.64
3425.00,99.64
3424.00,99.63
3423.00,99.63
3422.00,99.63
3421.00,99.63
3420.00,99.63
3419.00,99.63
3418.00,99.63
3417.00,99.62
3416.00,99.62
3415.00,99.61
3414.00,99.61
3413.00,99.61
3412.00,99.61
3411.00,99.61
3410.00,99.61
3409.00,99.60
3408.00,99.60
3407.00,99.60
3406.00,99.60
3405.00,99.60
3404.00,99.60
3403.00,99.60
3402.00,99.60
3401.00,99.60
3400.00,99.60
3399.00,99.59
3398.00,99.59
3397.00,99.59
3396.00,99.59
3395.00,99.59
3394.00,99.58
3393.00,99.58
3392.00,99.58
3391.00,99.58
3390.00,99.58
3389.00,99.58
3388.00,99.58
3387.00,99.58
3386.00,99.58
3385.00,99.58
3384.00,99.58
3383.00,99.57
3382.00,99.57
3381.00,99.57
3380.00,99.57
3379.00,99.57
3378.00,99.57
3377.00,99.57
3376.00,99.57
3375.00,99.57
3374.00,99.57
3373.00,99.56
3372.00,99.56
3371.00,99.56
3370.00,99.56
3369.00,99.56
3368.00,99.55
3367.00,99.55
3366.00,99.55
3365.00,99.55
3364.00,99.55
3363.00,99.56
3362.00,99.56
3361.00,99.56
3360.00,99.56
3359.00,99.56
3358.00,99.56
3357.00,99.56
3356.00,99.56
3355.00,99.56
3354.00,99.57
3353.00,99.57
3352.00,99.58
3351.00,99.58
3350.00,99.58
3349.00,99.58
3348.00,99.58
3347.00,99.58
3346.00,99.58
3345.00,99.59
3344.00,99.59
3343.00,99.59
3342.00,99.58
3341.00,99.58
3340.00,99.58
3339.00,99.58
3338.00,99.58
3337.00,99.59
3336.00,99.59
3335.00,99.59
3334.00,99.59
3333.00,99.59
3332.00,99.59
3331.00,99.59
3330.00,99.60
3329.00,99.60
3328.00,99.60
3327.00,99.60
3326.00,99.60
3325.00,99.60
3324.00,99.61
3323.00,99.61
3322.00,99.62
3321.00,99.62
3320.00,99.62
3319.00,99.62
3318.00,99.62
3317.00,99.63
3316.00,99.63
3315.00,99.63
3314.00,99.63
3313.00,99.63
3312.00,99.64
3311.00,99.64
3310.00,99.65
3309.00,99.65
3308.00,99.65
3307.00,99.64
3306.00,99.64
3305.00,99.64
3304.00,99.65
3303.00,99.65
3302.00,99.65
3301.00,99.65
3300.00,99.66
3299.00,99.66
3298.00,99.66
3297.00,99.67
3296.00,99.67
3295.00,99.67
3294.00,99.67
3293.00,99.68
3292.00,99.68
3291.00,99.69
3290.00,99.69
3289.00,99.69
3288.00,99.69
3287.00,99.69
3286.00,99.69
3285.00,99.69
3284.00,99.69
3283.00,99.70
3282.00,99.70
3281.00,99.70
3280.00,99.70
3279.00,99.70
3278.00,99.70
3277.00,99.70
3276.00,99.70
3275.00,99.70
3274.00,99.70
3273.00,99.71
3272.00,99.71
3271.00,99.72
3270.00,99.72
3269.00,99.72
3268.00,99.73
3267.00,99.73
3266.00,99.73
3265.00,99.72
3264.00,99.72
3263.00,99.72
3262.00,99.73
3261.00,99.73
3260.00,99.73
3259.00,99.74
3258.00,99.74
3257.00,99.74
3256.00,99.74
3255.00,99.75
3254.00,99.75
3253.00,99.75
3252.00,99.75
3251.00,99.75
3250.00,99.75
3249.00,99.75
3248.00,99.75
3247.00,99.75
3246.00,99.75
3245.00,99.76
3244.00,99.76
3243.00,99.76
3242.00,99.76
3241.00,99.76
3240.00,99.76
3239.00,99.77
3238.00,99.77
3237.00,99.78
3236.00,99.78
3235.00,99.77
3234.00,99.77
3233.00,99.77
3232.00,99.77
3231.00,99.77
3230.00,99.77
3229.00,99.78
3228.00,99.78
3227.00,99.78
3226.00,99.78
3225.00,99.78
3224.00,99.78
3223.00,99.78
3222.00,99.78
3221.00,99.78
3220.00,99.78
3219.00,99.78
3218.00,99.78
3217.00,99.78
3216.00,99.78
3215.00,99.78
3214.00,99.78
3213.00,99.78
3212.00,99.78
3211.00,99.78
3210.00,99.78
3209.00,99.78
3208.00,99.78
3207.00,99.78
3206.00,99.78
3205.00,99.78
3204.00,99.78
3203.00,99.79
3202.00,99.79
3201.00,99.79
3200.00,99.79
3199.00,99.79
3198.00,99.79
3197.00,99.79
3196.00,99.79
3195.00,99.79
3194.00,99.79
3193.00,99.79
3192.00,99.79
3191.00,99.79
3190.00,99.78
3189.00,99.78
3188.00,99.78
3187.00,99.79
3186.00,99.79
3185.00,99.79
3184.00,99.79
3183.00,99.79
3182.00,99.79
3181.00,99.79
3180.00,99.79
3179.00,99.79
3178.00,99.79
3177.00,99.79
3176.00,99.79
3175.00,99.79
3174.00,99.79
3173.00,99.78
3172.00,99.79
3171.00,99.79
3170.00,99.79
3169.00,99.79
3168.00,99.79
3167.00,99.79
3166.00,99.79
3165.00,99.79
3164.00,99.79
3163.00,99.79
3162.00,99.79
3161.00,99.79
3160.00,99.78
3159.00,99.78
3158.00,99.78
3157.00,99.78
3156.00,99.79
3155.00,99.79
3154.00,99.79
3153.00,99.79
3152.00,99.79
3151.00,99.79
3150.00,99.79
3149.00,99.79
3148.00,99.79
3147.00,99.79
3146.00,99.78
3145.00,99.78
3144.00,99.78
3143.00,99.78
3142.00,99.78
3141.00,99.78
3140.00,99.78
3139.00,99.78
3138.00,99.78
3137.00,99.77
3136.00,99.77
3135.00,99.77
3134.00,99.77
3133.00,99.77
3132.00,99.77
3131.00,99.77
3130.00,99.76
3129.00,99.76
3128.00,99.76
3127.00,99.75
3126.00,99.75
3125.00,99.75
3124.00,99.75
3123.00,99.75
3122.00,99.75
3121.00,99.74
3120.00,99.74
3119.00,99.73
3118.00,99.73
3117.00,99.73
3116.00,99.72
3115.00,99.72
3114.00,99.71
3113.00,99.71
3112.00,99.70
3111.00,99.70
3110.00,99.69
3109.00,99.69
3108.00,99.68
3107.00,99.68
3106.00,99.67
3105.00,99.66
3104.00,99.65
3103.00,99.64
3102.00,99.63
3101.00,99.62
3100.00,99.61
3099.00,99.61
3098.00,99.60
3097.00,99.59
3096.00,99.58
3095.00,99.57
3094.00,99.56
3093.00,99.55
3092.00,99.54
3091.00,99.53
3090.00,99.52
3089.00,99.51
3088.00,99.50
3087.00,99.49
3086.00,99.49
3085.00,99.48
3084.00,99.47
3083.00,99.47
3082.00,99.47
3081.00,99.46
3080.00,99.45
3079.00,99.45
3078.00,99.44
3077.00,99.44
3076.00,99.43
3075.00,99.43
3074.00,99.42
3073.00,99.42
3072.00,99.42
3071.00,99.41
3070.00,99.41
3069.00,99.41
3068.00,99.40
3067.00,99.40
3066.00,99.39
3065.00,99.38
3064.00,99.37
3063.00,99.36
3062.00,99.35
3061.00,99.34
3060.00,99.34
3059.00,99.33
3058.00,99.33
3057.00,99.32
3056.00,99.31
3055.00,99.30
3054.00,99.29
3053.00,99.28
3052.00,99.27
3051.00,99.27
3050.00,99.26
3049.00,99.25
3048.00,99.23
3047.00,99.22
3046.00,99.20
3045.00,99.19
3044.00,99.18
3043.00,99.16
3042.00,99.15
3041.00,99.13
3040.00,99.12
3039.00,99.11
3038.00,99.11
3037.00,99.10
3036.00,99.09
3035.00,99.08
3034.00,99.07
3033.00,99.05
3032.00,99.04
3031.00,99.03
3030.00,99.02
3029.00,99.01
3028.00,99.00
3027.00,98.99
3026.00,98.99
3025.00,98.98
3024.00,98.97
3023.00,98.96
3022.00,98.95
3021.00,98.94
3020.00,98.92
3019.00,98.91
3018.00,98.90
3017.00,98.89
3016.00,98.88
3015.00,98.87
3014.00,98.85
3013.00,98.84
3012.00,98.82
3011.00,98.80
3010.00,98.78
3009.00,98.76
3008.00,98.74
3007.00,98.73
3006.00,98.70
3005.00,98.68
3004.00,98.65
3003.00,98.62
3002.00,98.59
3001.00,98.56
3000.00,98.53
2999.00,98.50
2998.00,98.46
2997.00,98.42
2996.00,98.38
2995.00,98.33
2994.00,98.28
2993.00,98.23
2992.00,98.17
2991.00,98.11
2990.00,98.04
2989.00,97.97
2988.00,97.89
2987.00,97.80
2986.00,97.70
2985.00,97.60
2984.00,97.48
2983.00,97.36
2982.00,97.23
2981.00,97.09
2980.00,96.94
2979.00,96.79
2978.00,96.62
2977.00,96.43
2976.00,96.24
2975.00,96.04
2974.00,95.82
2973.00,95.59
2972.00,95.35
2971.00,95.09
2970.00,94.82
2969.00,94.55
2968.00,94.27
2967.00,93.99
2966.00,93.70
2965.00,93.42
2964.00,93.14
2963.00,92.88
2962.00,92.63
2961.00,92.39
2960.00,92.18
2959.00,91.98
2958.00,91.81
2957.00,91.66
2956.00,91.54
2955.00,91.43
2954.00,91.34
2953.00,91.26
2952.00,91.17
2951.00,91.05
2950.00,90.88
2949.00,90.65
2948.00,90.32
2947.00,89.89
2946.00,89.36
2945.00,88.72
2944.00,87.98
2943.00,87.13
2942.00,86.18
2941.00,85.14
2940.00,84.01
2939.00,82.79
2938.00,81.47
2937.00,80.06
2936.00,78.55
2935.00,76.94
2934.00,75.22
2933.00,73.40
2932.00,71.47
2931.00,69.42
2930.00,67.24
2929.00,64.93
2928.00,62.47
2927.00,59.82
2926.00,56.98
2925.00,53.93
2924.00,50.68
2923.00,47.27
2922.00,43.76
2921.00,40.27
2920.00,36.96
2919.00,34.02
2918.00,31.67
2917.00,30.14
2916.00,29.60
2915.00,30.10
2914.00,31.56
2913.00,33.80
2912.00,36.57
2911.00,39.59
2910.00,42.63
2909.00,45.54
2908.00,48.22
2907.00,50.63
2906.00,52.77
2905.00,54.65
2904.00,56.32
2903.00,57.80
2902.00,59.12
2901.00,60.34
2900.00,61.47
2899.00,62.53
2898.00,63.56
2897.00,64.57
2896.00,65.56
2895.00,66.56
2894.00,67.57
2893.00,68.58
2892.00,69.62
2891.00,70.66
2890.00,71.71
2889.00,72.77
2888.00,73.82
2887.00,74.86
2886.00,75.89
2885.00,76.90
2884.00,77.88
2883.00,78.83
2882.00,79.75
2881.00,80.63
2880.00,81.46
2879.00,82.23
2878.00,82.92
2877.00,83.52
2876.00,84.01
2875.00,84.41
2874.00,84.71
2873.00,84.93
2872.00,85.08
2871.00,85.17
2870.00,85.20
2869.00,85.14
2868.00,84.98
2867.00,84.68
2866.00,84.21
2865.00,83.54
2864.00,82.66
2863.00,81.54
2862.00,80.16
2861.00,78.49
2860.00,76.51
2859.00,74.17
2858.00,71.42
2857.00,68.18
2856.00,64.39
2855.00,59.99
2854.00,54.98
2853.00,49.53
2852.00,44.01
2851.00,39.05
2850.00,35.41
2849.00,33.78
2848.00,34.49
2847.00,37.35
2846.00,41.81
2845.00,47.15
2844.00,52.71
2843.00,58.04
2842.00,62.88
2841.00,67.13
2840.00,70.79
2839.00,73.90
2838.00,76.54
2837.00,78.78
2836.00,80.69
2835.00,82.33
2834.00,83.74
2833.00,84.97
2832.00,86.04
2831.00,86.98
2830.00,87.81
2829.00,88.56
2828.00,89.23
2827.00,89.83
2826.00,90.38
2825.00,90.88
2824.00,91.33
2823.00,91.75
2822.00,92.13
2821.00,92.48
2820.00,92.80
2819.00,93.10
2818.00,93.38
2817.00,93.64
2816.00,93.89
2815.00,94.11
2814.00,94.32
2813.00,94.52
2812.00,94.71
2811.00,94.88
2810.00,95.05
2809.00,95.21
2808.00,95.36
2807.00,95.50
2806.00,95.64
2805.00,95.76
2804.00,95.89
2803.00,96.01
2802.00,96.12
2801.00,96.23
2800.00,96.34
2799.00,96.44
2798.00,96.54
2797.00,96.63
2796.00,96.73
2795.00,96.82
2794.00,96.91
2793.00,97.00
2792.00,97.08
2791.00,97.16
2790.00,97.25
2789.00,97.32
2788.00,97.40
2787.00,97.47
2786.00,97.55
2785.00,97.61
2784.00,97.68
2783.00,97.74
2782.00,97.80
2781.00,97.86
2780.00,97.91
2779.00,97.96
2778.00,98.00
2777.00,98.05
2776.00,98.09
2775.00,98.13
2774.00,98.17
2773.00,98.21
2772.00,98.24
2771.00,98.27
2770.00,98.30
2769.00,98.33
2768.00,98.35
2767.00,98.38
2766.00,98.40
2765.00,98.42
2764.00,98.44
2763.00,98.46
2762.00,98.48
2761.00,98.50
2760.00,98.51
2759.00,98.53
2758.00,98.54
2757.00,98.56
2756.00,98.57
2755.00,98.58
2754.00,98.59
2753.00,98.60
2752.00,98.61
2751.00,98.61
2750.00,98.61
2749.00,98.61
2748.00,98.62
2747.00,98.62
2746.00,98.61
2745.00,98.61
2744.00,98.61
2743.00,98.61
2742.00,98.61
2741.00,98.61
2740.00,98.62
2739.00,98.62
2738.00,98.63
2737.00,98.63
2736.00,98.64
2735.00,98.65
2734.00,98.65
2733.00,98.66
2732.00,98.67
2731.00,98.67
2730.00,98.68
2729.00,98.70
2728.00,98.71
2727.00,98.72
2726.00,98.73
2725.00,98.74
2724.00,98.75
2723.00,98.76
2722.00,98.78
2721.00,98.79
2720.00,98.81
2719.00,98.82
2718.00,98.83
2717.00,98.85
2716.00,98.85
2715.00,98.86
2714.00,98.87
2713.00,98.88
2712.00,98.89
2711.00,98.90
2710.00,98.91
2709.00,98.91
2708.00,98.92
2707.00,98.92
2706.00,98.93
2705.00,98.95
2704.00,98.96
2703.00,98.97
2702.00,98.98
2701.00,98.98
2700.00,98.99
2699.00,98.99
2698.00,98.99
2697.00,99.00
2696.00,99.00
2695.00,99.00
2694.00,99.00
2693.00,99.00
2692.00,98.99
2691.00,98.99
2690.00,98.99
2689.00,98.99
2688.00,98.98
2687.00,98.98
2686.00,98.98
2685.00,98.98
2684.00,98.97
2683.00,98.96
2682.00,98.96
2681.00,98.95
2680.00,98.94
2679.00,98.93
2678.00,98.92
2677.00,98.91
2676.00,98.90
2675.00,98.89
2674.00,98.88
2673.00,98.87
2672.00,98.86
2671.00,98.85
2670.00,98.83
2669.00,98.82
2668.00,98.81
2667.00,98.80
2666.00,98.79
2665.00,98.78
2664.00,98.77
2663.00,98.75
2662.00,98.74
2661.00,98.74
2660.00,98.73
2659.00,98.72
2658.00,98.72
2657.00,98.71
2656.00,98.71
2655.00,98.71
2654.00,98.71
2653.00,98.71
2652.00,98.71
2651.00,98.71
2650.00,98.71
2649.00,98.71
2648.00,98.70
2647.00,98.70
2646.00,98.70
2645.00,98.69
2644.00,98.68
2643.00,98.67
2642.00,98.66
2641.00,98.66
2640.00,98.65
2639.00,98.65
2638.00,98.64
2637.00,98.64
2636.00,98.64
2635.00,98.64
2634.00,98.64
2633.00,98.65
2632.00,98.67
2631.00,98.69
2630.00,98.71
2629.00,98.73
2628.00,98.75
2627.00,98.77
2626.00,98.79
2625.00,98.81
2624.00,98.83
2623.00,98.84
2622.00,98.86
2621.00,98.88
2620.00,98.89
2619.00,98.91
2618.00,98.93
2617.00,98.95
2616.00,98.96
2615.00,98.98
2614.00,98.99
2613.00,99.01
2612.00,99.02
2611.00,99.04
2610.00,99.05
2609.00,99.06
2608.00,99.07
2607.00,99.08
2606.00,99.10
2605.00,99.11
2604.00,99.12
2603.00,99.13
2602.00,99.14
2601.00,99.14
2600.00,99.15
2599.00,99.15
2598.00,99.16
2597.00,99.17
2596.00,99.18
2595.00,99.19
2594.00,99.20
2593.00,99.21
2592.00,99.22
2591.00,99.23
2590.00,99.25
2589.00,99.26
2588.00,99.27
2587.00,99.28
2586.00,99.28
2585.00,99.29
2584.00,99.30
2583.00,99.31
2582.00,99.32
2581.00,99.33
2580.00,99.34
2579.00,99.35
2578.00,99.36
2577.00,99.36
2576.00,99.37
2575.00,99.37
2574.00,99.38
2573.00,99.39
2572.00,99.40
2571.00,99.41
2570.00,99.41
2569.00,99.41
2568.00,99.42
2567.00,99.42
2566.00,99.43
2565.00,99.43
2564.00,99.44
2563.00,99.45
2562.00,99.45
2561.00,99.46
2560.00,99.47
2559.00,99.47
2558.00,99.47
2557.00,99.47
2556.00,99.48
2555.00,99.48
2554.00,99.48
2553.00,99.49
2552.00,99.49
2551.00,99.49
2550.00,99.50
2549.00,99.51
2548.00,99.52
2547.00,99.53
2546.00,99.53
2545.00,99.54
2544.00,99.55
2543.00,99.56
2542.00,99.57
2541.00,99.58
2540.00,99.59
2539.00,99.59
2538.00,99.59
2537.00,99.59
2536.00,99.59
2535.00,99.59
2534.00,99.59
2533.00,99.58
2532.00,99.58
2531.00,99.58
2530.00,99.58
2529.00,99.58
2528.00,99.58
2527.00,99.58
2526.00,99.58
2525.00,99.59
2524.00,99.61
2523.00,99.62
2522.00,99.63
2521.00,99.63
2520.00,99.64
2519.00,99.64
2518.00,99.65
2517.00,99.66
2516.00,99.67
2515.00,99.67
2514.00,99.67
2513.00,99.67
2512.00,99.66
2511.00,99.66
2510.00,99.66
2509.00,99.67
2508.00,99.68
2507.00,99.69
2506.00,99.69
2505.00,99.69
2504.00,99.69
2503.00,99.69
2502.00,99.69
2501.00,99.70
2500.00,99.70
2499.00,99.70
2498.00,99.70
2497.00,99.70
2496.00,99.70
2495.00,99.71
2494.00,99.71
2493.00,99.71
2492.00,99.71
2491.00,99.71
2490.00,99.71
2489.00,99.70
2488.00,99.70
2487.00,99.71
2486.00,99.72
2485.00,99.72
2484.00,99.73
2483.00,99.73
2482.00,99.73
2481.00,99.74
2480.00,99.73
2479.00,99.73
2478.00,99.73
2477.00,99.73
2476.00,99.73
2475.00,99.73
2474.00,99.73
2473.00,99.73
2472.00,99.73
2471.00,99.74
2470.00,99.74
2469.00,99.75
2468.00,99.75
2467.00,99.75
2466.00,99.76
2465.00,99.76
2464.00,99.76
2463.00,99.76
2462.00,99.76
2461.00,99.76
2460.00,99.76
2459.00,99.76
2458.00,99.75
2457.00,99.75
2456.00,99.74
2455.00,99.74
2454.00,99.74
2453.00,99.74
2452.00,99.74
2451.00,99.75
2450.00,99.75
2449.00,99.75
2448.00,99.75
2447.00,99.75
2446.00,99.75
2445.00,99.75
2444.00,99.75
2443.00,99.75
2442.00,99.75
2441.00,99.76
2440.00,99.76
2439.00,99.75
2438.00,99.76
2437.00,99.76
2436.00,99.76
2435.00,99.76
2434.00,99.76
2433.00,99.76
2432.00,99.76
2431.00,99.75
2430.00,99.75
2429.00,99.76
2428.00,99.76
2427.00,99.76
2426.00,99.76
2425.00,99.75
2424.00,99.75
2423.00,99.75
2422.00,99.74
2421.00,99.74
2420.00,99.74
2419.00,99.74
2418.00,99.74
2417.00,99.74
2416.00,99.74
2415.00,99.74
2414.00,99.74
2413.00,99.75
2412.00,99.75
2411.00,99.76
2410.00,99.76
2409.00,99.77
2408.00,99.77
2407.00,99.78
2406.00,99.80
2405.00,99.81
2404.00,99.81
2403.00,99.81
2402.00,99.81
2401.00,99.81
2400.00,99.82
2399.00,99.82
2398.00,99.82
2397.00,99.82
2396.00,99.81
2395.00,99.81
2394.00,99.82
2393.00,99.82
2392.00,99.82
2391.00,99.82
2390.00,99.82
2389.00,99.82
2388.00,99.82
2387.00,99.82
2386.00,99.82
2385.00,99.82
2384.00,99.82
2383.00,99.82
2382.00,99.82
2381.00,99.82
2380.00,99.83
2379.00,99.84
2378.00,99.85
2377.00,99.87
2376.00,99.87
2375.00,99.88
2374.00,99.88
2373.00,99.88
2372.00,99.88
2371.00,99.88
2370.00,99.89
2369.00,99.88
2368.00,99.88
2367.00,99.87
2366.00,99.85
2365.00,99.82
2364.00,99.81
2363.00,99.80
2362.00,99.79
2361.00,99.78
2360.00,99.77
2359.00,99.75
2358.00,99.68
2357.00,99.68
2356.00,99.66
2355.00,99.65
2354.00,99.64
2353.00,99.62
2352.00,99.61
2351.00,99.60
2350.00,99.59
2349.00,99.59
2348.00,99.59
2347.00,99.58
2346.00,99.57
2345.00,99.58
2344.00,99.65
2343.00,99.62
2342.00,99.62
2341.00,99.60
2340.00,99.59
2339.00,99.59
2338.00,99.58
2337.00,99.57
2336.00,99.56
2335.00,99.56
2334.00,99.55
2333.00,99.54
2332.00,99.53
2331.00,99.53
2330.00,99.53
2329.00,99.52
2328.00,99.50
2327.00,99.45
2326.00,99.38
2325.00,99.31
2324.00,99.26
2323.00,99.26
2322.00,99.28
2321.00,99.32
2320.00,99.35
2319.00,99.38
2318.00,99.41
2317.00,99.42
2316.00,99.43
2315.00,99.43
2314.00,99.44
2313.00,99.44
2312.00,99.45
2311.00,99.46
2310.00,99.47
2309.00,99.48
2308.00,99.48
2307.00,99.48
2306.00,99.49
2305.00,99.49
2304.00,99.50
2303.00,99.50
2302.00,99.51
2301.00,99.51
2300.00,99.51
2299.00,99.51
2298.00,99.51
2297.00,99.50
2296.00,99.49
2295.00,99.48
2294.00,99.47
2293.00,99.46
2292.00,99.45
2291.00,99.45
2290.00,99.44
2289.00,99.43
2288.00,99.41
2287.00,99.40
2286.00,99.40
2285.00,99.40
2284.00,99.41
2283.00,99.42
2282.00,99.43
2281.00,99.44
2280.00,99.45
2279.00,99.46
2278.00,99.47
2277.00,99.48
2276.00,99.48
2275.00,99.49
2274.00,99.50
2273.00,99.51
2272.00,99.52
2271.00,99.52
2270.00,99.53
2269.00,99.53
2268.00,99.54
2267.00,99.56
2266.00,99.58
2265.00,99.59
2264.00,99.59
2263.00,99.60
2262.00,99.60
2261.00,99.59
2260.00,99.59
2259.00,99.58
2258.00,99.58
2257.00,99.58
2256.00,99.58
2255.00,99.59
2254.00,99.61
2253.00,99.63
2252.00,99.64
2251.00,99.64
2250.00,99.64
2249.00,99.63
2248.00,99.62
2247.00,99.61
2246.00,99.60
2245.00,99.59
2244.00,99.58
2243.00,99.59
2242.00,99.59
2241.00,99.60
2240.00,99.61
2239.00,99.61
2238.00,99.61
2237.00,99.61
2236.00,99.60
2235.00,99.61
2234.00,99.62
2233.00,99.62
2232.00,99.63
2231.00,99.64
2230.00,99.64
2229.00,99.64
2228.00,99.63
2227.00,99.63
2226.00,99.62
2225.00,99.61
2224.00,99.61
2223.00,99.60
2222.00,99.60
2221.00,99.60
2220.00,99.60
2219.00,99.61
2218.00,99.61
2217.00,99.62
2216.00,99.62
2215.00,99.63
2214.00,99.65
2213.00,99.65
2212.00,99.65
2211.00,99.64
2210.00,99.64
2209.00,99.62
2208.00,99.62
2207.00,99.62
2206.00,99.62
2205.00,99.61
2204.00,99.59
2203.00,99.59
2202.00,99.60
2201.00,99.60
2200.00,99.60
2199.00,99.59
2198.00,99.58
2197.00,99.56
2196.00,99.55
2195.00,99.55
2194.00,99.55
2193.00,99.54
2192.00,99.54
2191.00,99.53
2190.00,99.52
2189.00,99.50
2188.00,99.48
2187.00,99.47
2186.00,99.46
2185.00,99.45
2184.00,99.47
2183.00,99.51
2182.00,99.56
2181.00,99.60
2180.00,99.60
2179.00,99.58
2178.00,99.55
2177.00,99.54
2176.00,99.56
2175.00,99.59
2174.00,99.61
2173.00,99.60
2172.00,99.57
2171.00,99.52
2170.00,99.46
2169.00,99.40
2168.00,99.35
2167.00,99.32
2166.00,99.29
2165.00,99.26
2164.00,99.23
2163.00,99.18
2162.00,99.16
2161.00,99.20
2160.00,99.36
2159.00,99.63
2158.00,99.90
2157.00,100.07
2156.00,100.12
2155.00,100.09
2154.00,100.04
2153.00,99.99
2152.00,99.94
2151.00,99.91
2150.00,99.89
2149.00,99.87
2148.00,99.87
2147.00,99.89
2146.00,99.92
2145.00,99.94
2144.00,99.94
2143.00,99.94
2142.00,99.93
2141.00,99.92
2140.00,99.91
2139.00,99.91
2138.00,99.91
2137.00,99.93
2136.00,99.96
2135.00,100.01
2134.00,100.06
2133.00,100.09
2132.00,100.08
2131.00,100.06
2130.00,100.03
2129.00,100.00
2128.00,99.98
2127.00,99.96
2126.00,99.94
2125.00,99.92
2124.00,99.90
2123.00,99.88
2122.00,99.87
2121.00,99.85
2120.00,99.82
2119.00,99.80
2118.00,99.78
2117.00,99.76
2116.00,99.74
2115.00,99.73
2114.00,99.71
2113.00,99.69
2112.00,99.67
2111.00,99.66
2110.00,99.67
2109.00,99.67
2108.00,99.68
2107.00,99.69
2106.00,99.70
2105.00,99.71
2104.00,99.71
2103.00,99.71
2102.00,99.71
2101.00,99.70
2100.00,99.69
2099.00,99.68
2098.00,99.67
2097.00,99.69
2096.00,99.72
2095.00,99.77
2094.00,99.81
2093.00,99.81
2092.00,99.80
2091.00,99.77
2090.00,99.75
2089.00,99.72
2088.00,99.70
2087.00,99.69
2086.00,99.68
2085.00,99.66
2084.00,99.65
2083.00,99.63
2082.00,99.62
2081.00,99.61
2080.00,99.60
2079.00,99.60
2078.00,99.60
2077.00,99.60
2076.00,99.60
2075.00,99.61
2074.00,99.61
2073.00,99.61
2072.00,99.61
2071.00,99.62
2070.00,99.62
2069.00,99.62
2068.00,99.61
2067.00,99.60
2066.00,99.60
2065.00,99.60
2064.00,99.61
2063.00,99.61
2062.00,99.62
2061.00,99.62
2060.00,99.61
2059.00,99.60
2058.00,99.58
2057.00,99.56
2056.00,99.55
2055.00,99.57
2054.00,99.57
2053.00,99.53
2052.00,99.45
2051.00,99.36
2050.00,99.32
2049.00,99.33
2048.00,99.37
2047.00,99.40
2046.00,99.41
2045.00,99.41
2044.00,99.41
2043.00,99.41
2042.00,99.41
2041.00,99.39
2040.00,99.37
2039.00,99.34
2038.00,99.33
2037.00,99.32
2036.00,99.33
2035.00,99.34
2034.00,99.36
2033.00,99.38
2032.00,99.40
2031.00,99.42
2030.00,99.44
2029.00,99.44
2028.00,99.44
2027.00,99.44
2026.00,99.44
2025.00,99.43
2024.00,99.42
2023.00,99.42
2022.00,99.41
2021.00,99.39
2020.00,99.39
2019.00,99.40
2018.00,99.42
2017.00,99.44
2016.00,99.44
2015.00,99.45
2014.00,99.46
2013.00,99.47
2012.00,99.48
2011.00,99.51
2010.00,99.53
2009.00,99.55
2008.00,99.59
2007.00,99.64
2006.00,99.69
2005.00,99.72
2004.00,99.73
2003.00,99.72
2002.00,99.70
2001.00,99.67
2000.00,99.64
1999.00,99.62
1998.00,99.60
1997.00,99.59
1996.00,99.59
1995.00,99.60
1994.00,99.60
1993.00,99.60
1992.00,99.58
1991.00,99.57
1990.00,99.56
1989.00,99.54
1988.00,99.52
1987.00,99.50
1986.00,99.49
1985.00,99.46
1984.00,99.44
1983.00,99.41
1982.00,99.36
1981.00,99.30
1980.00,99.26
1979.00,99.29
1978.00,99.37
1977.00,99.47
1976.00,99.56
1975.00,99.63
1974.00,99.67
1973.00,99.69
1972.00,99.70
1971.00,99.72
1970.00,99.72
1969.00,99.72
1968.00,99.71
1967.00,99.70
1966.00,99.70
1965.00,99.71
1964.00,99.71
1963.00,99.73
1962.00,99.75
1961.00,99.78
1960.00,99.80
1959.00,99.82
1958.00,99.83
1957.00,99.82
1956.00,99.80
1955.00,99.79
1954.00,99.78
1953.00,99.77
1952.00,99.77
1951.00,99.78
1950.00,99.79
1949.00,99.79
1948.00,99.79
1947.00,99.80
1946.00,99.80
1945.00,99.79
1944.00,99.77
1943.00,99.76
1942.00,99.76
1941.00,99.76
1940.00,99.76
1939.00,99.77
1938.00,99.77
1937.00,99.77
1936.00,99.77
1935.00,99.78
1934.00,99.78
1933.00,99.79
1932.00,99.80
1931.00,99.80
1930.00,99.80
1929.00,99.80
1928.00,99.80
1927.00,99.80
1926.00,99.80
1925.00,99.79
1924.00,99.78
1923.00,99.78
1922.00,99.77
1921.00,99.76
1920.00,99.75
1919.00,99.75
1918.00,99.75
1917.00,99.75
1916.00,99.74
1915.00,99.74
1914.00,99.74
1913.00,99.74
1912.00,99.73
1911.00,99.73
1910.00,99.73
1909.00,99.72
1908.00,99.72
1907.00,99.72
1906.00,99.72
1905.00,99.71
1904.00,99.71
1903.00,99.70
1902.00,99.70
1901.00,99.68
1900.00,99.66
1899.00,99.65
1898.00,99.65
1897.00,99.64
1896.00,99.65
1895.00,99.66
1894.00,99.67
1893.00,99.69
1892.00,99.70
1891.00,99.72
1890.00,99.73
1889.00,99.74
1888.00,99.75
1887.00,99.75
1886.00,99.76
1885.00,99.77
1884.00,99.78
1883.00,99.79
1882.00,99.80
1881.00,99.80
1880.00,99.80
1879.00,99.80
1878.00,99.81
1877.00,99.81
1876.00,99.81
1875.00,99.81
1874.00,99.82
1873.00,99.83
1872.00,99.84
1871.00,99.85
1870.00,99.85
1869.00,99.84
1868.00,99.84
1867.00,99.83
1866.00,99.83
1865.00,99.83
1864.00,99.83
1863.00,99.84
1862.00,99.84
1861.00,99.84
1860.00,99.84
1859.00,99.84
1858.00,99.84
1857.00,99.84
1856.00,99.84
1855.00,99.84
1854.00,99.84
1853.00,99.85
1852.00,99.84
1851.00,99.85
1850.00,99.85
1849.00,99.84
1848.00,99.84
1847.00,99.84
1846.00,99.84
1845.00,99.84
1844.00,99.85
1843.00,99.85
1842.00,99.85
1841.00,99.84
1840.00,99.84
1839.00,99.84
1838.00,99.84
1837.00,99.84
1836.00,99.84
1835.00,99.84
1834.00,99.85
1833.00,99.84
1832.00,99.84
1831.00,99.84
1830.00,99.84
1829.00,99.83
1828.00,99.83
1827.00,99.82
1826.00,99.82
1825.00,99.81
1824.00,99.80
1823.00,99.80
1822.00,99.80
1821.00,99.79
1820.00,99.80
1819.00,99.81
1818.00,99.83
1817.00,99.85
1816.00,99.85
1815.00,99.85
1814.00,99.84
1813.00,99.83
1812.00,99.81
1811.00,99.81
1810.00,99.80
1809.00,99.80
1808.00,99.80
1807.00,99.80
1806.00,99.80
1805.00,99.79
1804.00,99.79
1803.00,99.79
1802.00,99.79
1801.00,99.79
1800.00,99.78
1799.00,99.78
1798.00,99.78
1797.00,99.78
1796.00,99.78
1795.00,99.78
1794.00,99.78
1793.00,99.78
1792.00,99.78
1791.00,99.79
1790.00,99.79
1789.00,99.79
1788.00,99.79
1787.00,99.79
1786.00,99.79
1785.00,99.79
1784.00,99.79
1783.00,99.79
1782.00,99.79
1781.00,99.79
1780.00,99.79
1779.00,99.79
1778.00,99.79
1777.00,99.80
1776.00,99.80
1775.00,99.80
1774.00,99.80
1773.00,99.79
1772.00,99.79
1771.00,99.78
1770.00,99.78
1769.00,99.77
1768.00,99.77
1767.00,99.78
1766.00,99.78
1765.00,99.79
1764.00,99.79
1763.00,99.79
1762.00,99.78
1761.00,99.78
1760.00,99.77
1759.00,99.77
1758.00,99.77
1757.00,99.77
1756.00,99.76
1755.00,99.76
1754.00,99.76
1753.00,99.76
1752.00,99.76
1751.00,99.76
1750.00,99.76
1749.00,99.75
1748.00,99.74
1747.00,99.74
1746.00,99.74
1745.00,99.74
1744.00,99.73
1743.00,99.73
1742.00,99.73
1741.00,99.73
1740.00,99.72
1739.00,99.72
1738.00,99.72
1737.00,99.72
1736.00,99.71
1735.00,99.71
1734.00,99.71
1733.00,99.70
1732.00,99.69
1731.00,99.69
1730.00,99.68
1729.00,99.66
1728.00,99.63
1727.00,99.60
1726.00,99.56
1725.00,99.53
1724.00,99.50
1723.00,99.50
1722.00,99.51
1721.00,99.52
1720.00,99.53
1719.00,99.54
1718.00,99.55
1717.00,99.55
1716.00,99.55
1715.00,99.56
1714.00,99.56
1713.00,99.57
1712.00,99.57
1711.00,99.57
1710.00,99.57
1709.00,99.57
1708.00,99.57
1707.00,99.57
1706.00,99.57
1705.00,99.58
1704.00,99.58
1703.00,99.58
1702.00,99.59
1701.00,99.60
1700.00,99.61
1699.00,99.61
1698.00,99.62
1697.00,99.62
1696.00,99.63
1695.00,99.64
1694.00,99.65
1693.00,99.65
1692.00,99.65
1691.00,99.65
1690.00,99.65
1689.00,99.65
1688.00,99.65
1687.00,99.65
1686.00,99.66
1685.00,99.66
1684.00,99.66
1683.00,99.66
1682.00,99.67
1681.00,99.67
1680.00,99.67
1679.00,99.67
1678.00,99.67
1677.00,99.67
1676.00,99.66
1675.00,99.66
1674.00,99.66
1673.00,99.66
1672.00,99.65
1671.00,99.65
1670.00,99.65
1669.00,99.65
1668.00,99.65
1667.00,99.65
1666.00,99.65
1665.00,99.65
1664.00,99.64
1663.00,99.64
1662.00,99.64
1661.00,99.63
1660.00,99.63
1659.00,99.63
1658.00,99.63
1657.00,99.62
1656.00,99.61
1655.00,99.60
1654.00,99.60
1653.00,99.60
1652.00,99.59
1651.00,99.59
1650.00,99.59
1649.00,99.58
1648.00,99.57
1647.00,99.57
1646.00,99.57
1645.00,99.57
1644.00,99.56
1643.00,99.56
1642.00,99.56
1641.00,99.56
1640.00,99.55
1639.00,99.55
1638.00,99.55
1637.00,99.55
1636.00,99.55
1635.00,99.55
1634.00,99.55
1633.00,99.55
1632.00,99.55
1631.00,99.55
1630.00,99.56
1629.00,99.57
1628.00,99.57
1627.00,99.57
1626.00,99.57
1625.00,99.56
1624.00,99.56
1623.00,99.56
1622.00,99.56
1621.00,99.55
1620.00,99.55
1619.00,99.55
1618.00,99.55
1617.00,99.54
1616.00,99.54
1615.00,99.55
1614.00,99.55
1613.00,99.56
1612.00,99.56
1611.00,99.56
1610.00,99.56
1609.00,99.55
1608.00,99.55
1607.00,99.55
1606.00,99.55
1605.00,99.55
1604.00,99.55
1603.00,99.55
1602.00,99.55
1601.00,99.55
1600.00,99.54
1599.00,99.54
1598.00,99.54
1597.00,99.54
1596.00,99.53
1595.00,99.53
1594.00,99.53
1593.00,99.53
1592.00,99.53
1591.00,99.53
1590.00,99.53
1589.00,99.53
1588.00,99.52
1587.00,99.52
1586.00,99.52
1585.00,99.52
1584.00,99.52
1583.00,99.52
1582.00,99.52
1581.00,99.52
1580.00,99.51
1579.00,99.51
1578.00,99.52
1577.00,99.52
1576.00,99.51
1575.00,99.52
1574.00,99.52
1573.00,99.52
1572.00,99.51
1571.00,99.51
1570.00,99.51
1569.00,99.51
1568.00,99.51
1567.00,99.51
1566.00,99.51
1565.00,99.51
1564.00,99.50
1563.00,99.50
1562.00,99.51
1561.00,99.51
1560.00,99.50
1559.00,99.50
1558.00,99.50
1557.00,99.48
1556.00,99.47
1555.00,99.47
1554.00,99.47
1553.00,99.46
1552.00,99.45
1551.00,99.45
1550.00,99.45
1549.00,99.44
1548.00,99.43
1547.00,99.43
1546.00,99.43
1545.00,99.42
1544.00,99.40
1543.00,99.40
1542.00,99.40
1541.00,99.38
1540.00,99.37
1539.00,99.38
1538.00,99.39
1537.00,99.38
1536.00,99.37
1535.00,99.37
1534.00,99.37
1533.00,99.36
1532.00,99.34
1531.00,99.34
1530.00,99.34
1529.00,99.33
1528.00,99.31
1527.00,99.31
1526.00,99.30
1525.00,99.29
1524.00,99.27
1523.00,99.26
1522.00,99.27
1521.00,99.26
1520.00,99.24
1519.00,99.24
1518.00,99.24
1517.00,99.22
1516.00,99.20
1515.00,99.19
1514.00,99.19
1513.00,99.17
1512.00,99.14
1511.00,99.13
1510.00,99.13
1509.00,99.10
1508.00,99.06
1507.00,99.04
1506.00,99.03
1505.00,99.00
1504.00,98.97
1503.00,98.96
1502.00,98.95
1501.00,98.91
1500.00,98.87
1499.00,98.84
1498.00,98.81
1497.00,98.76
1496.00,98.69
1495.00,98.66
1494.00,98.64
1493.00,98.59
1492.00,98.52
1491.00,98.47
1490.00,98.40
1489.00,98.29
1488.00,98.17
1487.00,98.07
1486.00,97.96
1485.00,97.81
1484.00,97.61
1483.00,97.39
1482.00,97.07
1481.00,96.61
1480.00,96.00
1479.00,95.11
1478.00,93.56
1477.00,90.81
1476.00,86.70
1475.00,81.64
1474.00,76.58
1473.00,73.14
1472.00,72.55
1471.00,73.96
1470.00,75.70
1469.00,76.95
1468.00,77.61
1467.00,77.63
1466.00,76.83
1465.00,75.37
1464.00,74.18
1463.00,74.23
1462.00,75.68
1461.00,78.14
1460.00,80.98
1459.00,83.64
1458.00,85.82
1457.00,87.46
1456.00,88.62
1455.00,89.46
1454.00,90.21
1453.00,90.99
1452.00,91.77
1451.00,92.43
1450.00,92.97
1449.00,93.42
1448.00,93.81
1447.00,94.11
1446.00,94.33
1445.00,94.53
1444.00,94.72
1443.00,94.89
1442.00,95.05
1441.00,95.22
1440.00,95.40
1439.00,95.57
1438.00,95.75
1437.00,95.99
1436.00,96.24
1435.00,96.45
1434.00,96.63
1433.00,96.84
1432.00,97.06
1431.00,97.29
1430.00,97.51
1429.00,97.72
1428.00,97.91
1427.00,98.06
1426.00,98.18
1425.00,98.31
1424.00,98.42
1423.00,98.50
1422.00,98.55
1421.00,98.61
1420.00,98.67
1419.00,98.71
1418.00,98.73
1417.00,98.77
1416.00,98.79
1415.00,98.81
1414.00,98.81
1413.00,98.83
1412.00,98.84
1411.00,98.84
1410.00,98.83
1409.00,98.84
1408.00,98.85
1407.00,98.84
1406.00,98.84
1405.00,98.84
1404.00,98.84
1403.00,98.83
1402.00,98.82
1401.00,98.83
1400.00,98.83
1399.00,98.82
1398.00,98.81
1397.00,98.80
1396.00,98.80
1395.00,98.78
1394.00,98.75
1393.00,98.72
1392.00,98.70
1391.00,98.65
1390.00,98.59
1389.00,98.52
1388.00,98.41
1387.00,98.26
1386.00,98.06
1385.00,97.83
1384.00,97.54
1383.00,97.20
1382.00,96.82
1381.00,96.43
1380.00,96.09
1379.00,95.82
1378.00,95.70
1377.00,95.72
1376.00,95.85
1375.00,96.03
1374.00,96.19
1373.00,96.30
1372.00,96.34
1371.00,96.34
1370.00,96.34
1369.00,96.35
1368.00,96.38
1367.00,96.44
1366.00,96.52
1365.00,96.64
1364.00,96.78
1363.00,96.94
1362.00,97.10
1361.00,97.23
1360.00,97.34
1359.00,97.43
1358.00,97.50
1357.00,97.55
1356.00,97.59
1355.00,97.61
1354.00,97.62
1353.00,97.63
1352.00,97.65
1351.00,97.68
1350.00,97.71
1349.00,97.76
1348.00,97.81
1347.00,97.86
1346.00,97.90
1345.00,97.94
1344.00,97.98
1343.00,98.01
1342.00,98.04
1341.00,98.08
1340.00,98.13
1339.00,98.17
1338.00,98.22
1337.00,98.28
1336.00,98.34
1335.00,98.40
1334.00,98.45
1333.00,98.50
1332.00,98.54
1331.00,98.56
1330.00,98.57
1329.00,98.58
1328.00,98.59
1327.00,98.59
1326.00,98.58
1325.00,98.58
1324.00,98.58
1323.00,98.56
1322.00,98.54
1321.00,98.52
1320.00,98.50
1319.00,98.47
1318.00,98.44
1317.00,98.42
1316.00,98.39
1315.00,98.36
1314.00,98.33
1313.00,98.29
1312.00,98.26
1311.00,98.23
1310.00,98.20
1309.00,98.19
1308.00,98.17
1307.00,98.16
1306.00,98.14
1305.00,98.13
1304.00,98.13
1303.00,98.13
1302.00,98.13
1301.00,98.14
1300.00,98.15
1299.00,98.17
1298.00,98.18
1297.00,98.20
1296.00,98.23
1295.00,98.26
1294.00,98.29
1293.00,98.32
1292.00,98.36
1291.00,98.39
1290.00,98.41
1289.00,98.43
1288.00,98.45
1287.00,98.47
1286.00,98.49
1285.00,98.52
1284.00,98.54
1283.00,98.55
1282.00,98.56
1281.00,98.58
1280.00,98.59
1279.00,98.60
1278.00,98.61
1277.00,98.62
1276.00,98.63
1275.00,98.63
1274.00,98.64
1273.00,98.64
1272.00,98.65
1271.00,98.66
1270.00,98.67
1269.00,98.69
1268.00,98.70
1267.00,98.71
1266.00,98.72
1265.00,98.73
1264.00,98.74
1263.00,98.75
1262.00,98.76
1261.00,98.78
1260.00,98.80
1259.00,98.82
1258.00,98.83
1257.00,98.85
1256.00,98.87
1255.00,98.89
1254.00,98.91
1253.00,98.93
1252.00,98.96
1251.00,98.98
1250.00,99.00
1249.00,99.02
1248.00,99.04
1247.00,99.06
1246.00,99.07
1245.00,99.09
1244.00,99.11
1243.00,99.12
1242.00,99.12
1241.00,99.12
1240.00,99.13
1239.00,99.12
1238.00,99.11
1237.00,99.11
1236.00,99.10
1235.00,99.10
1234.00,99.08
1233.00,99.07
1232.00,99.06
1231.00,99.05
1230.00,99.03
1229.00,99.01
1228.00,99.00
1227.00,98.97
1226.00,98.94
1225.00,98.92
1224.00,98.91
1223.00,98.90
1222.00,98.89
1221.00,98.88
1220.00,98.87
1219.00,98.86
1218.00,98.84
1217.00,98.83
1216.00,98.82
1215.00,98.81
1214.00,98.81
1213.00,98.80
1212.00,98.80
1211.00,98.79
1210.00,98.78
1209.00,98.78
1208.00,98.78
1207.00,98.77
1206.00,98.76
1205.00,98.76
1204.00,98.75
1203.00,98.74
1202.00,98.73
1201.00,98.72
1200.00,98.71
1199.00,98.70
1198.00,98.68
1197.00,98.67
1196.00,98.66
1195.00,98.65
1194.00,98.64
1193.00,98.63
1192.00,98.63
1191.00,98.62
1190.00,98.61
1189.00,98.60
1188.00,98.59
1187.00,98.58
1186.00,98.58
1185.00,98.57
1184.00,98.57
1183.00,98.57
1182.00,98.55
1181.00,98.54
1180.00,98.53
1179.00,98.51
1178.00,98.50
1177.00,98.50
1176.00,98.51
1175.00,98.52
1174.00,98.53
1173.00,98.54
1172.00,98.55
1171.00,98.55
1170.00,98.54
1169.00,98.53
1168.00,98.52
1167.00,98.52
1166.00,98.51
1165.00,98.50
1164.00,98.48
1163.00,98.46
1162.00,98.44
1161.00,98.41
1160.00,98.38
1159.00,98.35
1158.00,98.32
1157.00,98.30
1156.00,98.28
1155.00,98.26
1154.00,98.24
1153.00,98.23
1152.00,98.22
1151.00,98.21
1150.00,98.20
1149.00,98.20
1148.00,98.21
1147.00,98.21
1146.00,98.22
1145.00,98.24
1144.00,98.26
1143.00,98.29
1142.00,98.30
1141.00,98.32
1140.00,98.33
1139.00,98.34
1138.00,98.35
1137.00,98.37
1136.00,98.39
1135.00,98.41
1134.00,98.43
1133.00,98.46
1132.00,98.48
1131.00,98.50
1130.00,98.52
1129.00,98.56
1128.00,98.59
1127.00,98.62
1126.00,98.64
1125.00,98.66
1124.00,98.68
1123.00,98.70
1122.00,98.71
1121.00,98.73
1120.00,98.75
1119.00,98.76
1118.00,98.77
1117.00,98.78
1116.00,98.79
1115.00,98.80
1114.00,98.80
1113.00,98.82
1112.00,98.83
1111.00,98.83
1110.00,98.84
1109.00,98.84
1108.00,98.85
1107.00,98.86
1106.00,98.86
1105.00,98.87
1104.00,98.88
1103.00,98.88
1102.00,98.87
1101.00,98.86
1100.00,98.86
1099.00,98.85
1098.00,98.85
1097.00,98.84
1096.00,98.84
1095.00,98.83
1094.00,98.81
1093.00,98.79
1092.00,98.78
1091.00,98.76
1090.00,98.74
1089.00,98.72
1088.00,98.70
1087.00,98.68
1086.00,98.67
1085.00,98.65
1084.00,98.64
1083.00,98.61
1082.00,98.58
1081.00,98.56
1080.00,98.55
1079.00,98.54
1078.00,98.54
1077.00,98.55
1076.00,98.57
1075.00,98.59
1074.00,98.61
1073.00,98.65
1072.00,98.68
1071.00,98.71
1070.00,98.73
1069.00,98.76
1068.00,98.78
1067.00,98.80
1066.00,98.80
1065.00,98.81
1064.00,98.82
1063.00,98.84
1062.00,98.86
1061.00,98.89
1060.00,98.91
1059.00,98.93
1058.00,98.94
1057.00,98.95
1056.00,98.96
1055.00,98.97
1054.00,98.97
1053.00,98.97
1052.00,98.97
1051.00,98.97
1050.00,98.98
1049.00,99.01
1048.00,99.04
1047.00,99.06
1046.00,99.07
1045.00,99.09
1044.00,99.10
1043.00,99.11
1042.00,99.11
1041.00,99.12
1040.00,99.13
1039.00,99.14
1038.00,99.14
1037.00,99.15
1036.00,99.16
1035.00,99.17
1034.00,99.17
1033.00,99.17
1032.00,99.17
1031.00,99.17
1030.00,99.18
1029.00,99.18
1028.00,99.19
1027.00,99.20
1026.00,99.21
1025.00,99.22
1024.00,99.22
1023.00,99.22
1022.00,99.22
1021.00,99.22
1020.00,99.22
1019.00,99.23
1018.00,99.23
1017.00,99.23
1016.00,99.23
1015.00,99.23
1014.00,99.23
1013.00,99.23
1012.00,99.24
1011.00,99.24
1010.00,99.24
1009.00,99.23
1008.00,99.24
1007.00,99.24
1006.00,99.24
1005.00,99.25
1004.00,99.25
1003.00,99.24
1002.00,99.24
1001.00,99.24
1000.00,99.24
999.00,99.24
998.00,99.24
997.00,99.24
996.00,99.25
995.00,99.26
994.00,99.25
993.00,99.25
992.00,99.25
991.00,99.24
990.00,99.23
989.00,99.22
988.00,99.22
987.00,99.21
986.00,99.21
985.00,99.21
984.00,99.21
983.00,99.19
982.00,99.18
981.00,99.16
980.00,99.15
979.00,99.14
978.00,99.13
977.00,99.12
976.00,99.11
975.00,99.11
974.00,99.10
973.00,99.09
972.00,99.08
971.00,99.06
970.00,99.04
969.00,99.03
968.00,99.03
967.00,99.02
966.00,99.01
965.00,99.00
964.00,98.99
963.00,98.98
962.00,98.97
961.00,98.96
960.00,98.95
959.00,98.94
958.00,98.92
957.00,98.89
956.00,98.87
955.00,98.84
954.00,98.82
953.00,98.80
952.00,98.78
951.00,98.76
950.00,98.74
949.00,98.72
948.00,98.70
947.00,98.69
946.00,98.67
945.00,98.66
944.00,98.66
943.00,98.66
942.00,98.66
941.00,98.66
940.00,98.66
939.00,98.65
938.00,98.65
937.00,98.65
936.00,98.66
935.00,98.68
934.00,98.69
933.00,98.69
932.00,98.69
931.00,98.67
930.00,98.66
929.00,98.65
928.00,98.65
927.00,98.66
926.00,98.66
925.00,98.66
924.00,98.66
923.00,98.66
922.00,98.65
921.00,98.64
920.00,98.62
919.00,98.60
918.00,98.57
917.00,98.53
916.00,98.47
915.00,98.40
914.00,98.31
913.00,98.22
912.00,98.13
911.00,98.04
910.00,97.95
909.00,97.88
908.00,97.82
907.00,97.80
906.00,97.81
905.00,97.87
904.00,97.96
903.00,98.08
902.00,98.18
901.00,98.28
900.00,98.37
899.00,98.44
898.00,98.51
897.00,98.57
896.00,98.62
895.00,98.66
894.00,98.69
893.00,98.71
892.00,98.72
891.00,98.73
890.00,98.74
889.00,98.75
888.00,98.78
887.00,98.82
886.00,98.87
885.00,98.92
884.00,98.97
883.00,99.00
882.00,99.03
881.00,99.06
880.00,99.09
879.00,99.12
878.00,99.14
877.00,99.16
876.00,99.18
875.00,99.19
874.00,99.19
873.00,99.20
872.00,99.20
871.00,99.20
870.00,99.20
869.00,99.20
868.00,99.20
867.00,99.20
866.00,99.19
865.00,99.19
864.00,99.19
863.00,99.19
862.00,99.20
861.00,99.20
860.00,99.21
859.00,99.21
858.00,99.20
857.00,99.21
856.00,99.22
855.00,99.23
854.00,99.21
853.00,99.20
852.00,99.19
851.00,99.20
850.00,99.19
849.00,99.19
848.00,99.18
847.00,99.19
846.00,99.20
845.00,99.22
844.00,99.23
843.00,99.24
842.00,99.24
841.00,99.24
840.00,99.23
839.00,99.23
838.00,99.22
837.00,99.21
836.00,99.20
835.00,99.19
834.00,99.18
833.00,99.17
832.00,99.16
831.00,99.16
830.00,99.17
829.00,99.17
828.00,99.18
827.00,99.18
826.00,99.18
825.00,99.17
824.00,99.17
823.00,99.16
822.00,99.15
821.00,99.15
820.00,99.14
819.00,99.14
818.00,99.13
817.00,99.12
816.00,99.13
815.00,99.13
814.00,99.12
813.00,99.09
812.00,99.07
811.00,99.06
810.00,99.05
809.00,99.05
808.00,99.06
807.00,99.05
806.00,99.03
805.00,98.99
804.00,98.96
803.00,98.94
802.00,98.92
801.00,98.91
800.00,98.90
799.00,98.89
798.00,98.87
797.00,98.85
796.00,98.84
795.00,98.83
794.00,98.82
793.00,98.80
792.00,98.78
791.00,98.76
790.00,98.74
789.00,98.73
788.00,98.71
787.00,98.69
786.00,98.67
785.00,98.64
784.00,98.62
783.00,98.59
782.00,98.56
781.00,98.52
780.00,98.49
779.00,98.46
778.00,98.42
777.00,98.37
776.00,98.32
775.00,98.26
774.00,98.21
773.00,98.16
772.00,98.12
771.00,98.08
770.00,98.04
769.00,98.01
768.00,98.00
767.00,97.99
766.00,98.00
765.00,98.03
764.00,98.06
763.00,98.10
762.00,98.13
761.00,98.14
760.00,98.15
759.00,98.15
758.00,98.14
757.00,98.13
756.00,98.11
755.00,98.09
754.00,98.05
753.00,98.01
752.00,97.97
751.00,97.93
750.00,97.88
749.00,97.80
748.00,97.73
747.00,97.67
746.00,97.60
745.00,97.50
744.00,97.38
743.00,97.24
742.00,97.07
741.00,96.86
740.00,96.60
739.00,96.29
738.00,95.87
737.00,95.26
736.00,94.31
735.00,92.74
734.00,90.21
733.00,86.75
732.00,83.03
731.00,80.22
730.00,79.22
729.00,80.01
728.00,81.69
727.00,83.20
726.00,83.88
725.00,83.60
724.00,82.32
723.00,79.92
722.00,76.39
721.00,72.25
720.00,68.66
719.00,66.83
718.00,67.21
717.00,69.46
716.00,72.94
715.00,77.00
714.00,81.04
713.00,84.59
712.00,87.39
711.00,89.47
710.00,91.01
709.00,92.20
708.00,93.14
707.00,93.89
706.00,94.50
705.00,95.03
704.00,95.46
703.00,95.81
702.00,96.09
701.00,96.35
700.00,96.58
699.00,96.80
698.00,96.99
697.00,97.17
696.00,97.31
695.00,97.42
694.00,97.52
693.00,97.61
692.00,97.70
691.00,97.76
690.00,97.83
689.00,97.89
688.00,97.95
687.00,97.99
686.00,98.03
685.00,98.07
684.00,98.11
683.00,98.14
682.00,98.18
681.00,98.24
680.00,98.29
679.00,98.31
678.00,98.31
677.00,98.32
676.00,98.34
675.00,98.37
674.00,98.42
673.00,98.48
672.00,98.52
671.00,98.54
670.00,98.53
669.00,98.51
668.00,98.51
667.00,98.51
666.00,98.50
665.00,98.51
664.00,98.50
663.00,98.48
662.00,98.46
661.00,98.45
660.00,98.44
659.00,98.46
658.00,98.48
657.00,98.51
656.00,98.54
655.00,98.56
654.00,98.58
653.00,98.59
652.00,98.58
651.00,98.54
650.00,98.49
