Created as New Dataset,PE powder (low density) GF 300um
cm-1,%T
4000.00,99.79
3999.00,99.79
3998.00,99.79
3997.00,99.79
3996.00,99.79
3995.00,99.79
3994.00,99.79
3993.00,99.79
3992.00,99.79
3991.00,99.79
3990.00,99.79
3989.00,99.79
3988.00,99.79
3987.00,99.79
3986.00,99.79
3985.00,99.79
3984.00,99.79
3983.00,99.78
3982.00,99.78
3981.00,99.78
3980.00,99.78
3979.00,99.78
3978.00,99.79
3977.00,99.79
3976.00,99.79
3975.00,99.79
3974.00,99.79
3973.00,99.79
3972.00,99.79
3971.00,99.79
3970.00,99.79
3969.00,99.79
3968.00,99.80
3967.00,99.80
3966.00,99.80
3965.00,99.79
3964.00,99.79
3963.00,99.79
3962.00,99.79
3961.00,99.79
3960.00,99.79
3959.00,99.79
3958.00,99.79
3957.00,99.79
3956.00,99.79
3955.00,99.79
3954.00,99.79
3953.00,99.79
3952.00,99.79
3951.00,99.79
3950.00,99.79
3949.00,99.79
3948.00,99.79
3947.00,99.79
3946.00,99.79
3945.00,99.79
3944.00,99.78
3943.00,99.78
3942.00,99.78
3941.00,99.78
3940.00,99.78
3939.00,99.78
3938.00,99.78
3937.00,99.78
3936.00,99.78
3935.00,99.78
3934.00,99.78
3933.00,99.77
3932.00,99.77
3931.00,99.76
3930.00,99.76
3929.00,99.76
3928.00,99.76
3927.00,99.76
3926.00,99.76
3925.00,99.76
3924.00,99.76
3923.00,99.76
3922.00,99.76
3921.00,99.76
3920.00,99.76
3919.00,99.76
3918.00,99.77
3917.00,99.77
3916.00,99.77
3915.00,99.77
3914.00,99.77
3913.00,99.77
3912.00,99.77
3911.00,99.77
3910.00,99.76
3909.00,99.76
3908.00,99.75
3907.00,99.75
3906.00,99.74
3905.00,99.74
3904.00,99.74
3903.00,99.73
3902.00,99.73
3901.00,99.73
3900.00,99.74
3899.00,99.75
3898.00,99.75
3897.00,99.76
3896.00,99.76
3895.00,99.75
3894.00,99.75
3893.00,99.75
3892.00,99.75
3891.00,99.75
3890.00,99.75
3889.00,99.74
3888.00,99.74
3887.00,99.74
3886.00,99.74
3885.00,99.75
3884.00,99.75
3883.00,99.75
3882.00,99.75
3881.00,99.75
3880.00,99.76
3879.00,99.76
3878.00,99.75
3877.00,99.75
3876.00,99.75
3875.00,99.75
3874.00,99.75
3873.00,99.75
3872.00,99.75
3871.00,99.74
3870.00,99.75
3869.00,99.75
3868.00,99.75
3867.00,99.75
3866.00,99.75
3865.00,99.75
3864.00,99.75
3863.00,99.75
3862.00,99.75
3861.00,99.75
3860.00,99.76
3859.00,99.76
3858.00,99.76
3857.00,99.76
3856.00,99.76
3855.00,99.75
3854.00,99.75
3853.00,99.75
3852.00,99.75
3851.00,99.75
3850.00,99.75
3849.00,99.75
3848.00,99.76
3847.00,99.76
3846.00,99.76
3845.00,99.76
3844.00,99.76
3843.00,99.76
3842.00,99.76
3841.00,99.75
3840.00,99.75
3839.00,99.74
3838.00,99.74
3837.00,99.74
3836.00,99.74
3835.00,99.74
3834.00,99.74
3833.00,99.74
3832.00,99.75
3831.00,99.75
3830.00,99.75
3829.00,99.76
3828.00,99.76
3827.00,99.76
3826.00,99.75
3825.00,99.75
3824.00,99.74
3823.00,99.73
3822.00,99.73
3821.00,99.73
3820.00,99.73
3819.00,99.73
3818.00,99.73
3817.00,99.74
3816.00,99.75
3815.00,99.75
3814.00,99.75
3813.00,99.75
3812.00,99.75
3811.00,99.75
3810.00,99.75
3809.00,99.76
3808.00,99.76
3807.00,99.75
3806.00,99.75
3805.00,99.74
3804.00,99.74
3803.00,99.75
3802.00,99.75
3801.00,99.76
3800.00,99.75
3799.00,99.75
3798.00,99.75
3797.00,99.75
3796.00,99.76
3795.00,99.76
3794.00,99.76
3793.00,99.76
3792.00,99.77
3791.00,99.77
3790.00,99.76
3789.00,99.76
3788.00,99.76
3787.00,99.76
3786.00,99.76
3785.00,99.76
3784.00,99.76
3783.00,99.76
3782.00,99.76
3781.00,99.76
3780.00,99.76
3779.00,99.76
3778.00,99.76
3777.00,99.76
3776.00,99.76
3775.00,99.76
3774.00,99.76
3773.00,99.76
3772.00,99.76
3771.00,99.76
3770.00,99.76
3769.00,99.75
3768.00,99.75
3767.00,99.75
3766.00,99.75
3765.00,99.75
3764.00,99.75
3763.00,99.75
3762.00,99.75
3761.00,99.75
3760.00,99.75
3759.00,99.75
3758.00,99.75
3757.00,99.74
3756.00,99.74
3755.00,99.73
3754.00,99.73
3753.00,99.73
3752.00,99.73
3751.00,99.73
3750.00,99.73
3749.00,99.72
3748.00,99.72
3747.00,99.72
3746.00,99.72
3745.00,99.73
3744.00,99.74
3743.00,99.73
3742.00,99.73
3741.00,99.73
3740.00,99.73
3739.00,99.74
3738.00,99.74
3737.00,99.74
3736.00,99.75
3735.00,99.75
3734.00,99.76
3733.00,99.76
3732.00,99.76
3731.00,99.76
3730.00,99.76
3729.00,99.76
3728.00,99.76
3727.00,99.75
3726.00,99.75
3725.00,99.75
3724.00,99.75
3723.00,99.75
3722.00,99.75
3721.00,99.75
3720.00,99.75
3719.00,99.75
3718.00,99.75
3717.00,99.75
3716.00,99.75
3715.00,99.75
3714.00,99.75
3713.00,99.74
3712.00,99.74
3711.00,99.74
3710.00,99.74
3709.00,99.75
3708.00,99.75
3707.00,99.76
3706.00,99.76
3705.00,99.76
3704.00,99.75
3703.00,99.75
3702.00,99.75
3701.00,99.76
3700.00,99.76
3699.00,99.77
3698.00,99.77
3697.00,99.77
3696.00,99.77
3695.00,99.77
3694.00,99.77
3693.00,99.76
3692.00,99.75
3691.00,99.75
3690.00,99.75
3689.00,99.74
3688.00,99.74
3687.00,99.75
3686.00,99.75
3685.00,99.75
3684.00,99.76
3683.00,99.76
3682.00,99.75
3681.00,99.74
3680.00,99.74
3679.00,99.73
3678.00,99.72
3677.00,99.72
3676.00,99.72
3675.00,99.73
3674.00,99.73
3673.00,99.73
3672.00,99.73
3671.00,99.73
3670.00,99.73
3669.00,99.73
3668.00,99.73
3667.00,99.74
3666.00,99.74
3665.00,99.74
3664.00,99.74
3663.00,99.74
3662.00,99.74
3661.00,99.74
3660.00,99.73
3659.00,99.73
3658.00,99.73
3657.00,99.73
3656.00,99.73
3655.00,99.73
3654.00,99.72
3653.00,99.72
3652.00,99.71
3651.00,99.71
3650.00,99.71
3649.00,99.70
3648.00,99.70
3647.00,99.70
3646.00,99.71
3645.00,99.71
3644.00,99.71
3643.00,99.72
3642.00,99.73
3641.00,99.73
3640.00,99.74
3639.00,99.74
3638.00,99.75
3637.00,99.74
3636.00,99.74
3635.00,99.74
3634.00,99.74
3633.00,99.73
3632.00,99.73
3631.00,99.73
3630.00,99.73
3629.00,99.74
3628.00,99.74
3627.00,99.74
3626.00,99.74
3625.00,99.74
3624.00,99.73
3623.00,99.73
3622.00,99.73
3621.00,99.72
3620.00,99.72
3619.00,99.72
3618.00,99.71
3617.00,99.71
3616.00,99.70
3615.00,99.70
3614.00,99.69
3613.00,99.69
3612.00,99.69
3611.00,99.68
3610.00,99.68
3609.00,99.67
3608.00,99.66
3607.00,99.66
3606.00,99.66
3605.00,99.67
3604.00,99.67
3603.00,99.68
3602.00,99.69
3601.00,99.70
3600.00,99.70
3599.00,99.71
3598.00,99.72
3597.00,99.72
3596.00,99.73
3595.00,99.73
3594.00,99.74
3593.00,99.74
3592.00,99.75
3591.00,99.75
3590.00,99.75
3589.00,99.76
3588.00,99.76
3587.00,99.77
3586.00,99.77
3585.00,99.78
3584.00,99.78
3583.00,99.79
3582.00,99.80
3581.00,99.80
3580.00,99.80
3579.00,99.80
3578.00,99.80
3577.00,99.80
3576.00,99.80
3575.00,99.79
3574.00,99.79
3573.00,99.79
3572.00,99.79
3571.00,99.79
3570.00,99.79
3569.00,99.79
3568.00,99.79
3567.00,99.79
3566.00,99.79
3565.00,99.80
3564.00,99.80
3563.00,99.80
3562.00,99.80
3561.00,99.80
3560.00,99.80
3559.00,99.80
3558.00,99.80
3557.00,99.80
3556.00,99.80
3555.00,99.80
3554.00,99.80
3553.00,99.80
3552.00,99.79
3551.00,99.79
3550.00,99.79
3549.00,99.79
3548.00,99.79
3547.00,99.79
3546.00,99.79
3545.00,99.79
3544.00,99.79
3543.00,99.79
3542.00,99.80
3541.00,99.80
3540.00,99.80
3539.00,99.80
3538.00,99.80
3537.00,99.80
3536.00,99.80
3535.00,99.80
3534.00,99.80
3533.00,99.80
3532.00,99.79
3531.00,99.79
3530.00,99.79
3529.00,99.80
3528.00,99.80
3527.00,99.79
3526.00,99.79
3525.00,99.79
3524.00,99.79
3523.00,99.78
3522.00,99.79
3521.00,99.79
3520.00,99.79
3519.00,99.79
3518.00,99.79
3517.00,99.79
3516.00,99.79
3515.00,99.79
3514.00,99.79
3513.00,99.79
3512.00,99.79
3511.00,99.79
3510.00,99.79
3509.00,99.79
3508.00,99.79
3507.00,99.79
3506.00,99.78
3505.00,99.78
3504.00,99.78
3503.00,99.78
3502.00,99.78
3501.00,99.78
3500.00,99.79
3499.00,99.79
3498.00,99.79
3497.00,99.79
3496.00,99.79
3495.00,99.79
3494.00,99.78
3493.00,99.78
3492.00,99.78
3491.00,99.78
3490.00,99.78
3489.00,99.79
3488.00,99.79
3487.00,99.79
3486.00,99.79
3485.00,99.78
3484.00,99.78
3483.00,99.78
3482.00,99.78
3481.00,99.79
3480.00,99.79
3479.00,99.79
3478.00,99.79
3477.00,99.78
3476.00,99.78
3475.00,99.78
3474.00,99.78
3473.00,99.78
3472.00,99.78
3471.00,99.78
3470.00,99.78
3469.00,99.78
3468.00,99.78
3467.00,99.77
3466.00,99.77
3465.00,99.77
3464.00,99.77
3463.00,99.77
3462.00,99.77
3461.00,99.77
3460.00,99.77
3459.00,99.77
3458.00,99.77
3457.00,99.77
3456.00,99.77
3455.00,99.77
3454.00,99.77
3453.00,99.77
3452.00,99.77
3451.00,99.77
3450.00,99.77
3449.00,99.77
3448.00,99.77
3447.00,99.77
3446.00,99.77
3445.00,99.76
3444.00,99.76
3443.00,99.76
3442.00,99.77
3441.00,99.77
3440.00,99.77
3439.00,99.77
3438.00,99.77
3437.00,99.77
3436.00,99.77
3435.00,99.77
3434.00,99.77
3433.00,99.77
3432.00,99.77
3431.00,99.77
3430.00,99.77
3429.00,99.76
3428.00,99.76
3427.00,99.76
3426.00,99.76
3425.00,99.76
3424.00,99.77
3423.00,99.77
3422.00,99.77
3421.00,99.77
3420.00,99.77
3419.00,99.77
3418.00,99.77
3417.00,99.77
3416.00,99.77
3415.00,99.77
3414.00,99.77
3413.00,99.77
3412.00,99.77
3411.00,99.77
3410.00,99.77
3409.00,99.77
3408.00,99.77
3407.00,99.76
3406.00,99.76
3405.00,99.76
3404.00,99.76
3403.00,99.76
3402.00,99.76
3401.00,99.76
3400.00,99.76
3399.00,99.76
3398.00,99.76
3397.00,99.76
3396.00,99.76
3395.00,99.76
3394.00,99.76
3393.00,99.76
3392.00,99.76
3391.00,99.76
3390.00,99.77
3389.00,99.77
3388.00,99.77
3387.00,99.77
3386.00,99.77
3385.00,99.77
3384.00,99.76
3383.00,99.76
3382.00,99.76
3381.00,99.76
3380.00,99.76
3379.00,99.76
3378.00,99.76
3377.00,99.76
3376.00,99.76
3375.00,99.76
3374.00,99.76
3373.00,99.76
3372.00,99.75
3371.00,99.75
3370.00,99.75
3369.00,99.76
3368.00,99.76
3367.00,99.76
3366.00,99.76
3365.00,99.76
3364.00,99.76
3363.00,99.76
3362.00,99.77
3361.00,99.77
3360.00,99.77
3359.00,99.77
3358.00,99.77
3357.00,99.77
3356.00,99.78
3355.00,99.78
3354.00,99.77
3353.00,99.77
3352.00,99.77
3351.00,99.77
3350.00,99.77
3349.00,99.77
3348.00,99.78
3347.00,99.78
3346.00,99.78
3345.00,99.78
3344.00,99.78
3343.00,99.78
3342.00,99.78
3341.00,99.78
3340.00,99.78
3339.00,99.78
3338.00,99.77
3337.00,99.77
3336.00,99.77
3335.00,99.77
3334.00,99.77
3333.00,99.77
3332.00,99.77
3331.00,99.78
3330.00,99.78
3329.00,99.78
3328.00,99.78
3327.00,99.78
3326.00,99.78
3325.00,99.78
3324.00,99.78
3323.00,99.78
3322.00,99.79
3321.00,99.79
3320.00,99.79
3319.00,99.79
3318.00,99.78
3317.00,99.78
3316.00,99.78
3315.00,99.78
3314.00,99.78
3313.00,99.78
3312.00,99.78
3311.00,99.78
3310.00,99.79
3309.00,99.79
3308.00,99.79
3307.00,99.79
3306.00,99.79
3305.00,99.79
3304.00,99.79
3303.00,99.79
3302.00,99.79
3301.00,99.79
3300.00,99.78
3299.00,99.78
3298.00,99.78
3297.00,99.79
3296.00,99.79
3295.00,99.79
3294.00,99.78
3293.00,99.78
3292.00,99.78
3291.00,99.78
3290.00,99.78
3289.00,99.78
3288.00,99.78
3287.00,99.78
3286.00,99.78
3285.00,99.78
3284.00,99.79
3283.00,99.79
3282.00,99.79
3281.00,99.79
3280.00,99.79
3279.00,99.79
3278.00,99.79
3277.00,99.78
3276.00,99.78
3275.00,99.78
3274.00,99.78
3273.00,99.78
3272.00,99.78
3271.00,99.79
3270.00,99.79
3269.00,99.79
3268.00,99.79
3267.00,99.79
3266.00,99.79
3265.00,99.79
3264.00,99.79
3263.00,99.79
3262.00,99.79
3261.00,99.79
3260.00,99.79
3259.00,99.79
3258.00,99.79
3257.00,99.79
3256.00,99.79
3255.00,99.79
3254.00,99.79
3253.00,99.79
3252.00,99.79
3251.00,99.79
3250.00,99.79
3249.00,99.79
3248.00,99.79
3247.00,99.79
3246.00,99.79
3245.00,99.79
3244.00,99.79
3243.00,99.79
3242.00,99.80
3241.00,99.80
3240.00,99.80
3239.00,99.80
3238.00,99.79
3237.00,99.79
3236.00,99.79
3235.00,99.79
3234.00,99.79
3233.00,99.79
3232.00,99.79
3231.00,99.79
3230.00,99.79
3229.00,99.79
3228.00,99.79
3227.00,99.79
3226.00,99.79
3225.00,99.79
3224.00,99.79
3223.00,99.79
3222.00,99.79
3221.00,99.79
3220.00,99.79
3219.00,99.79
3218.00,99.79
3217.00,99.79
3216.00,99.79
3215.00,99.79
3214.00,99.79
3213.00,99.79
3212.00,99.79
3211.00,99.78
3210.00,99.78
3209.00,99.78
3208.00,99.78
3207.00,99.78
3206.00,99.78
3205.00,99.78
3204.00,99.77
3203.00,99.77
3202.00,99.77
3201.00,99.77
3200.00,99.77
3199.00,99.78
3198.00,99.78
3197.00,99.78
3196.00,99.78
3195.00,99.78
3194.00,99.77
3193.00,99.77
3192.00,99.77
3191.00,99.77
3190.00,99.78
3189.00,99.78
3188.00,99.77
3187.00,99.77
3186.00,99.77
3185.00,99.76
3184.00,99.76
3183.00,99.77
3182.00,99.77
3181.00,99.78
3180.00,99.78
3179.00,99.78
3178.00,99.77
3177.00,99.77
3176.00,99.77
3175.00,99.77
3174.00,99.77
3173.00,99.77
3172.00,99.77
3171.00,99.77
3170.00,99.76
3169.00,99.76
3168.00,99.76
3167.00,99.77
3166.00,99.77
3165.00,99.77
3164.00,99.77
3163.00,99.77
3162.00,99.76
3161.00,99.76
3160.00,99.75
3159.00,99.75
3158.00,99.75
3157.00,99.74
3156.00,99.75
3155.00,99.75
3154.00,99.76
3153.00,99.76
3152.00,99.76
3151.00,99.76
3150.00,99.75
3149.00,99.75
3148.00,99.75
3147.00,99.75
3146.00,99.75
3145.00,99.75
3144.00,99.75
3143.00,99.74
3142.00,99.74
3141.00,99.74
3140.00,99.74
3139.00,99.73
3138.00,99.73
3137.00,99.73
3136.00,99.73
3135.00,99.73
3134.00,99.73
3133.00,99.73
3132.00,99.73
3131.00,99.73
3130.00,99.73
3129.00,99.73
3128.00,99.73
3127.00,99.73
3126.00,99.72
3125.00,99.72
3124.00,99.71
3123.00,99.71
3122.00,99.71
3121.00,99.71
3120.00,99.70
3119.00,99.70
3118.00,99.70
3117.00,99.69
3116.00,99.69
3115.00,99.68
3114.00,99.68
3113.00,99.67
3112.00,99.67
3111.00,99.67
3110.00,99.66
3109.00,99.66
3108.00,99.65
3107.00,99.64
3106.00,99.63
3105.00,99.63
3104.00,99.62
3103.00,99.62
3102.00,99.61
3101.00,99.61
3100.00,99.60
3099.00,99.59
3098.00,99.58
3097.00,99.57
3096.00,99.56
3095.00,99.56
3094.00,99.55
3093.00,99.54
3092.00,99.54
3091.00,99.53
3090.00,99.52
3089.00,99.51
3088.00,99.50
3087.00,99.49
3086.00,99.48
3085.00,99.48
3084.00,99.47
3083.00,99.46
3082.00,99.45
3081.00,99.45
3080.00,99.44
3079.00,99.43
3078.00,99.43
3077.00,99.43
3076.00,99.42
3075.00,99.42
3074.00,99.41
3073.00,99.40
3072.00,99.40
3071.00,99.39
3070.00,99.38
3069.00,99.38
3068.00,99.37
3067.00,99.36
3066.00,99.35
3065.00,99.34
3064.00,99.33
3063.00,99.33
3062.00,99.32
3061.00,99.32
3060.00,99.32
3059.00,99.31
3058.00,99.31
3057.00,99.30
3056.00,99.29
3055.00,99.28
3054.00,99.28
3053.00,99.27
3052.00,99.27
3051.00,99.26
3050.00,99.25
3049.00,99.23
3048.00,99.22
3047.00,99.22
3046.00,99.21
3045.00,99.20
3044.00,99.19
3043.00,99.18
3042.00,99.16
3041.00,99.15
3040.00,99.14
3039.00,99.13
3038.00,99.12
3037.00,99.10
3036.00,99.09
3035.00,99.08
3034.00,99.06
3033.00,99.04
3032.00,99.03
3031.00,99.01
3030.00,99.00
3029.00,98.98
3028.00,98.97
3027.00,98.96
3026.00,98.95
3025.00,98.95
3024.00,98.94
3023.00,98.93
3022.00,98.92
3021.00,98.92
3020.00,98.91
3019.00,98.90
3018.00,98.88
3017.00,98.87
3016.00,98.85
3015.00,98.83
3014.00,98.82
3013.00,98.81
3012.00,98.80
3011.00,98.78
3010.00,98.76
3009.00,98.74
3008.00,98.72
3007.00,98.70
3006.00,98.68
3005.00,98.65
3004.00,98.63
3003.00,98.60
3002.00,98.58
3001.00,98.55
3000.00,98.53
2999.00,98.50
2998.00,98.47
2997.00,98.44
2996.00,98.41
2995.00,98.37
2994.00,98.33
2993.00,98.29
2992.00,98.24
2991.00,98.19
2990.00,98.13
2989.00,98.07
2988.00,98.01
2987.00,97.94
2986.00,97.86
2985.00,97.78
2984.00,97.69
2983.00,97.59
2982.00,97.48
2981.00,97.36
2980.00,97.22
2979.00,97.07
2978.00,96.91
2977.00,96.73
2976.00,96.53
2975.00,96.31
2974.00,96.08
2973.00,95.82
2972.00,95.54
2971.00,95.25
2970.00,94.94
2969.00,94.62
2968.00,94.29
2967.00,93.95
2966.00,93.60
2965.00,93.27
2964.00,92.94
2963.00,92.63
2962.00,92.34
2961.00,92.07
2960.00,91.84
2959.00,91.63
2958.00,91.45
2957.00,91.29
2956.00,91.17
2955.00,91.07
2954.00,90.98
2953.00,90.91
2952.00,90.81
2951.00,90.69
2950.00,90.52
2949.00,90.28
2948.00,89.95
2947.00,89.51
2946.00,88.97
2945.00,88.32
2944.00,87.56
2943.00,86.69
2942.00,85.73
2941.00,84.67
2940.00,83.52
2939.00,82.28
2938.00,80.96
2937.00,79.54
2936.00,78.04
2935.00,76.44
2934.00,74.75
2933.00,72.96
2932.00,71.06
2931.00,69.06
2930.00,66.94
2929.00,64.69
2928.00,62.31
2927.00,59.80
2926.00,57.16
2925.00,54.39
2924.00,51.53
2923.00,48.60
2922.00,45.66
2921.00,42.83
2920.00,40.22
2919.00,38.01
2918.00,36.37
2917.00,35.47
2916.00,35.41
2915.00,36.17
2914.00,37.66
2913.00,39.71
2912.00,42.11
2911.00,44.66
2910.00,47.21
2909.00,49.65
2908.00,51.91
2907.00,53.98
2906.00,55.84
2905.00,57.51
2904.00,59.01
2903.00,60.37
2902.00,61.60
2901.00,62.75
2900.00,63.83
2899.00,64.86
2898.00,65.85
2897.00,66.82
2896.00,67.79
2895.00,68.76
2894.00,69.74
2893.00,70.73
2892.00,71.73
2891.00,72.74
2890.00,73.75
2889.00,74.76
2888.00,75.76
2887.00,76.73
2886.00,77.66
2885.00,78.55
2884.00,79.40
2883.00,80.20
2882.00,80.95
2881.00,81.65
2880.00,82.30
2879.00,82.90
2878.00,83.42
2877.00,83.86
2876.00,84.20
2875.00,84.45
2874.00,84.63
2873.00,84.74
2872.00,84.81
2871.00,84.83
2870.00,84.81
2869.00,84.72
2868.00,84.54
2867.00,84.22
2866.00,83.73
2865.00,83.05
2864.00,82.14
2863.00,81.00
2862.00,79.59
2861.00,77.88
2860.00,75.85
2859.00,73.45
2858.00,70.65
2857.00,67.42
2856.00,63.73
2855.00,59.64
2854.00,55.28
2853.00,50.88
2852.00,46.81
2851.00,43.55
2850.00,41.55
2849.00,41.15
2848.00,42.41
2847.00,45.11
2846.00,48.85
2845.00,53.20
2844.00,57.75
2843.00,62.21
2842.00,66.38
2841.00,70.15
2840.00,73.48
2839.00,76.36
2838.00,78.83
2837.00,80.94
2836.00,82.75
2835.00,84.30
2834.00,85.63
2833.00,86.78
2832.00,87.78
2831.00,88.66
2830.00,89.43
2829.00,90.12
2828.00,90.73
2827.00,91.28
2826.00,91.77
2825.00,92.22
2824.00,92.62
2823.00,92.99
2822.00,93.33
2821.00,93.64
2820.00,93.93
2819.00,94.20
2818.00,94.44
2817.00,94.67
2816.00,94.88
2815.00,95.08
2814.00,95.26
2813.00,95.43
2812.00,95.59
2811.00,95.74
2810.00,95.88
2809.00,96.02
2808.00,96.14
2807.00,96.26
2806.00,96.37
2805.00,96.48
2804.00,96.58
2803.00,96.68
2802.00,96.78
2801.00,96.87
2800.00,96.96
2799.00,97.04
2798.00,97.11
2797.00,97.18
2796.00,97.26
2795.00,97.33
2794.00,97.40
2793.00,97.46
2792.00,97.53
2791.00,97.59
2790.00,97.65
2789.00,97.71
2788.00,97.76
2787.00,97.82
2786.00,97.88
2785.00,97.93
2784.00,97.98
2783.00,98.03
2782.00,98.07
2781.00,98.11
2780.00,98.15
2779.00,98.19
2778.00,98.23
2777.00,98.26
2776.00,98.29
2775.00,98.32
2774.00,98.36
2773.00,98.39
2772.00,98.41
2771.00,98.44
2770.00,98.46
2769.00,98.48
2768.00,98.50
2767.00,98.52
2766.00,98.53
2765.00,98.55
2764.00,98.56
2763.00,98.57
2762.00,98.59
2761.00,98.61
2760.00,98.62
2759.00,98.64
2758.00,98.65
2757.00,98.66
2756.00,98.68
2755.00,98.69
2754.00,98.69
2753.00,98.70
2752.00,98.70
2751.00,98.70
2750.00,98.71
2749.00,98.71
2748.00,98.71
2747.00,98.71
2746.00,98.70
2745.00,98.70
2744.00,98.70
2743.00,98.70
2742.00,98.70
2741.00,98.70
2740.00,98.71
2739.00,98.71
2738.00,98.71
2737.00,98.71
2736.00,98.71
2735.00,98.71
2734.00,98.71
2733.00,98.72
2732.00,98.72
2731.00,98.73
2730.00,98.73
2729.00,98.74
2728.00,98.75
2727.00,98.76
2726.00,98.78
2725.00,98.79
2724.00,98.80
2723.00,98.81
2722.00,98.82
2721.00,98.83
2720.00,98.84
2719.00,98.85
2718.00,98.86
2717.00,98.87
2716.00,98.87
2715.00,98.88
2714.00,98.89
2713.00,98.90
2712.00,98.91
2711.00,98.92
2710.00,98.93
2709.00,98.94
2708.00,98.95
2707.00,98.95
2706.00,98.96
2705.00,98.97
2704.00,98.97
2703.00,98.98
2702.00,98.98
2701.00,98.98
2700.00,98.98
2699.00,98.99
2698.00,98.98
2697.00,98.98
2696.00,98.98
2695.00,98.97
2694.00,98.97
2693.00,98.97
2692.00,98.96
2691.00,98.96
2690.00,98.95
2689.00,98.95
2688.00,98.94
2687.00,98.94
2686.00,98.93
2685.00,98.92
2684.00,98.92
2683.00,98.91
2682.00,98.90
2681.00,98.90
2680.00,98.89
2679.00,98.89
2678.00,98.88
2677.00,98.88
2676.00,98.87
2675.00,98.87
2674.00,98.86
2673.00,98.85
2672.00,98.85
2671.00,98.84
2670.00,98.84
2669.00,98.84
2668.00,98.84
2667.00,98.83
2666.00,98.83
2665.00,98.82
2664.00,98.81
2663.00,98.80
2662.00,98.79
2661.00,98.79
2660.00,98.78
2659.00,98.78
2658.00,98.77
2657.00,98.77
2656.00,98.76
2655.00,98.76
2654.00,98.76
2653.00,98.75
2652.00,98.75
2651.00,98.75
2650.00,98.75
2649.00,98.75
2648.00,98.75
2647.00,98.75
2646.00,98.75
2645.00,98.75
2644.00,98.74
2643.00,98.73
2642.00,98.73
2641.00,98.72
2640.00,98.72
2639.00,98.72
2638.00,98.72
2637.00,98.72
2636.00,98.73
2635.00,98.73
2634.00,98.74
2633.00,98.75
2632.00,98.77
2631.00,98.78
2630.00,98.79
2629.00,98.80
2628.00,98.82
2627.00,98.83
2626.00,98.85
2625.00,98.86
2624.00,98.87
2623.00,98.89
2622.00,98.90
2621.00,98.92
2620.00,98.93
2619.00,98.94
2618.00,98.96
2617.00,98.97
2616.00,98.98
2615.00,98.99
2614.00,99.01
2613.00,99.02
2612.00,99.03
2611.00,99.04
2610.00,99.04
2609.00,99.06
2608.00,99.07
2607.00,99.08
2606.00,99.09
2605.00,99.10
2604.00,99.11
2603.00,99.12
2602.00,99.12
2601.00,99.13
2600.00,99.14
2599.00,99.15
2598.00,99.16
2597.00,99.17
2596.00,99.18
2595.00,99.18
2594.00,99.19
2593.00,99.20
2592.00,99.22
2591.00,99.23
2590.00,99.24
2589.00,99.25
2588.00,99.25
2587.00,99.26
2586.00,99.27
2585.00,99.28
2584.00,99.29
2583.00,99.29
2582.00,99.30
2581.00,99.31
2580.00,99.32
2579.00,99.33
2578.00,99.34
2577.00,99.35
2576.00,99.35
2575.00,99.36
2574.00,99.36
2573.00,99.37
2572.00,99.37
2571.00,99.37
2570.00,99.38
2569.00,99.38
2568.00,99.39
2567.00,99.40
2566.00,99.41
2565.00,99.42
2564.00,99.42
2563.00,99.42
2562.00,99.43
2561.00,99.43
2560.00,99.44
2559.00,99.44
2558.00,99.45
2557.00,99.45
2556.00,99.45
2555.00,99.45
2554.00,99.46
2553.00,99.47
2552.00,99.47
2551.00,99.47
2550.00,99.48
2549.00,99.48
2548.00,99.49
2547.00,99.50
2546.00,99.51
2545.00,99.52
2544.00,99.53
2543.00,99.54
2542.00,99.54
2541.00,99.55
2540.00,99.55
2539.00,99.55
2538.00,99.55
2537.00,99.55
2536.00,99.55
2535.00,99.55
2534.00,99.55
2533.00,99.55
2532.00,99.55
2531.00,99.55
2530.00,99.56
2529.00,99.56
2528.00,99.56
2527.00,99.57
2526.00,99.57
2525.00,99.58
2524.00,99.58
2523.00,99.59
2522.00,99.60
2521.00,99.60
2520.00,99.61
2519.00,99.61
2518.00,99.61
2517.00,99.61
2516.00,99.61
2515.00,99.62
2514.00,99.62
2513.00,99.63
2512.00,99.64
2511.00,99.64
2510.00,99.64
2509.00,99.64
2508.00,99.64
2507.00,99.65
2506.00,99.65
2505.00,99.65
2504.00,99.65
2503.00,99.66
2502.00,99.66
2501.00,99.65
2500.00,99.65
2499.00,99.65
2498.00,99.65
2497.00,99.65
2496.00,99.66
2495.00,99.66
2494.00,99.66
2493.00,99.66
2492.00,99.66
2491.00,99.67
2490.00,99.67
2489.00,99.68
2488.00,99.68
2487.00,99.69
2486.00,99.69
2485.00,99.69
2484.00,99.69
2483.00,99.69
2482.00,99.69
2481.00,99.68
2480.00,99.68
2479.00,99.68
2478.00,99.68
2477.00,99.68
2476.00,99.68
2475.00,99.69
2474.00,99.70
2473.00,99.70
2472.00,99.70
2471.00,99.71
2470.00,99.71
2469.00,99.72
2468.00,99.72
2467.00,99.72
2466.00,99.72
2465.00,99.72
2464.00,99.72
2463.00,99.72
2462.00,99.72
2461.00,99.71
2460.00,99.70
2459.00,99.70
2458.00,99.69
2457.00,99.69
2456.00,99.69
2455.00,99.70
2454.00,99.69
2453.00,99.69
2452.00,99.69
2451.00,99.69
2450.00,99.69
2449.00,99.70
2448.00,99.70
2447.00,99.71
2446.00,99.71
2445.00,99.71
2444.00,99.71
2443.00,99.71
2442.00,99.71
2441.00,99.71
2440.00,99.71
2439.00,99.72
2438.00,99.72
2437.00,99.72
2436.00,99.72
2435.00,99.72
2434.00,99.73
2433.00,99.73
2432.00,99.73
2431.00,99.72
2430.00,99.72
2429.00,99.72
2428.00,99.72
2427.00,99.72
2426.00,99.72
2425.00,99.72
2424.00,99.72
2423.00,99.72
2422.00,99.72
2421.00,99.72
2420.00,99.71
2419.00,99.71
2418.00,99.71
2417.00,99.71
2416.00,99.72
2415.00,99.72
2414.00,99.72
2413.00,99.73
2412.00,99.73
2411.00,99.73
2410.00,99.73
2409.00,99.73
2408.00,99.73
2407.00,99.74
2406.00,99.75
2405.00,99.76
2404.00,99.77
2403.00,99.78
2402.00,99.78
2401.00,99.78
2400.00,99.77
2399.00,99.77
2398.00,99.78
2397.00,99.78
2396.00,99.78
2395.00,99.77
2394.00,99.77
2393.00,99.77
2392.00,99.77
2391.00,99.77
2390.00,99.78
2389.00,99.78
2388.00,99.79
2387.00,99.79
2386.00,99.78
2385.00,99.78
2384.00,99.77
2383.00,99.77
2382.00,99.77
2381.00,99.78
2380.00,99.78
2379.00,99.79
2378.00,99.79
2377.00,99.78
2376.00,99.77
2375.00,99.76
2374.00,99.75
2373.00,99.75
2372.00,99.75
2371.00,99.75
2370.00,99.75
2369.00,99.75
2368.00,99.75
2367.00,99.75
2366.00,99.74
2365.00,99.73
2364.00,99.73
2363.00,99.72
2362.00,99.72
2361.00,99.70
2360.00,99.69
2359.00,99.68
2358.00,99.68
2357.00,99.68
2356.00,99.68
2355.00,99.68
2354.00,99.68
2353.00,99.67
2352.00,99.66
2351.00,99.65
2350.00,99.64
2349.00,99.65
2348.00,99.66
2347.00,99.66
2346.00,99.64
2345.00,99.62
2344.00,99.60
2343.00,99.58
2342.00,99.56
2341.00,99.54
2340.00,99.53
2339.00,99.53
2338.00,99.53
2337.00,99.52
2336.00,99.52
2335.00,99.51
2334.00,99.51
2333.00,99.51
2332.00,99.50
2331.00,99.50
2330.00,99.49
2329.00,99.48
2328.00,99.45
2327.00,99.40
2326.00,99.32
2325.00,99.25
2324.00,99.20
2323.00,99.20
2322.00,99.22
2321.00,99.26
2320.00,99.29
2319.00,99.32
2318.00,99.34
2317.00,99.36
2316.00,99.37
2315.00,99.39
2314.00,99.41
2313.00,99.42
2312.00,99.43
2311.00,99.44
2310.00,99.44
2309.00,99.45
2308.00,99.45
2307.00,99.46
2306.00,99.46
2305.00,99.46
2304.00,99.46
2303.00,99.46
2302.00,99.46
2301.00,99.46
2300.00,99.46
2299.00,99.46
2298.00,99.47
2297.00,99.47
2296.00,99.46
2295.00,99.45
2294.00,99.45
2293.00,99.43
2292.00,99.42
2291.00,99.41
2290.00,99.40
2289.00,99.38
2288.00,99.37
2287.00,99.36
2286.00,99.35
2285.00,99.35
2284.00,99.35
2283.00,99.37
2282.00,99.39
2281.00,99.41
2280.00,99.42
2279.00,99.43
2278.00,99.43
2277.00,99.43
2276.00,99.44
2275.00,99.45
2274.00,99.46
2273.00,99.47
2272.00,99.48
2271.00,99.49
2270.00,99.49
2269.00,99.49
2268.00,99.50
2267.00,99.51
2266.00,99.54
2265.00,99.55
2264.00,99.56
2263.00,99.56
2262.00,99.55
2261.00,99.54
2260.00,99.54
2259.00,99.53
2258.00,99.53
2257.00,99.54
2256.00,99.55
2255.00,99.56
2254.00,99.58
2253.00,99.60
2252.00,99.60
2251.00,99.59
2250.00,99.58
2249.00,99.57
2248.00,99.55
2247.00,99.53
2246.00,99.52
2245.00,99.51
2244.00,99.51
2243.00,99.51
2242.00,99.51
2241.00,99.51
2240.00,99.51
2239.00,99.51
2238.00,99.51
2237.00,99.51
2236.00,99.51
2235.00,99.51
2234.00,99.52
2233.00,99.53
2232.00,99.54
2231.00,99.54
2230.00,99.54
2229.00,99.54
2228.00,99.54
2227.00,99.54
2226.00,99.54
2225.00,99.54
2224.00,99.54
2223.00,99.54
2222.00,99.54
2221.00,99.54
2220.00,99.53
2219.00,99.53
2218.00,99.54
2217.00,99.54
2216.00,99.54
2215.00,99.54
2214.00,99.54
2213.00,99.54
2212.00,99.54
2211.00,99.53
2210.00,99.52
2209.00,99.52
2208.00,99.52
2207.00,99.53
2206.00,99.54
2205.00,99.54
2204.00,99.54
2203.00,99.54
2202.00,99.53
2201.00,99.53
2200.00,99.52
2199.00,99.52
2198.00,99.50
2197.00,99.49
2196.00,99.47
2195.00,99.47
2194.00,99.47
2193.00,99.47
2192.00,99.47
2191.00,99.46
2190.00,99.44
2189.00,99.42
2188.00,99.40
2187.00,99.39
2186.00,99.39
2185.00,99.39
2184.00,99.40
2183.00,99.43
2182.00,99.47
2181.00,99.49
2180.00,99.51
2179.00,99.50
2178.00,99.49
2177.00,99.49
2176.00,99.51
2175.00,99.54
2174.00,99.55
2173.00,99.53
2172.00,99.50
2171.00,99.46
2170.00,99.41
2169.00,99.36
2168.00,99.31
2167.00,99.27
2166.00,99.24
2165.00,99.21
2164.00,99.18
2163.00,99.14
2162.00,99.12
2161.00,99.17
2160.00,99.34
2159.00,99.61
2158.00,99.88
2157.00,100.04
2156.00,100.09
2155.00,100.07
2154.00,100.02
2153.00,99.96
2152.00,99.91
2151.00,99.88
2150.00,99.86
2149.00,99.85
2148.00,99.84
2147.00,99.84
2146.00,99.85
2145.00,99.86
2144.00,99.87
2143.00,99.88
2142.00,99.88
2141.00,99.88
2140.00,99.88
2139.00,99.88
2138.00,99.88
2137.00,99.89
2136.00,99.92
2135.00,99.96
2134.00,100.01
2133.00,100.05
2132.00,100.05
2131.00,100.03
2130.00,100.00
2129.00,99.97
2128.00,99.93
2127.00,99.91
2126.00,99.88
2125.00,99.86
2124.00,99.84
2123.00,99.83
2122.00,99.82
2121.00,99.80
2120.00,99.78
2119.00,99.76
2118.00,99.74
2117.00,99.71
2116.00,99.69
2115.00,99.66
2114.00,99.64
2113.00,99.62
2112.00,99.62
2111.00,99.63
2110.00,99.65
2109.00,99.66
2108.00,99.67
2107.00,99.66
2106.00,99.66
2105.00,99.65
2104.00,99.65
2103.00,99.65
2102.00,99.66
2101.00,99.65
2100.00,99.65
2099.00,99.65
2098.00,99.67
2097.00,99.68
2096.00,99.71
2095.00,99.74
2094.00,99.76
2093.00,99.75
2092.00,99.74
2091.00,99.71
2090.00,99.69
2089.00,99.67
2088.00,99.65
2087.00,99.64
2086.00,99.62
2085.00,99.61
2084.00,99.60
2083.00,99.60
2082.00,99.59
2081.00,99.58
2080.00,99.57
2079.00,99.56
2078.00,99.56
2077.00,99.55
2076.00,99.55
2075.00,99.54
2074.00,99.54
2073.00,99.54
2072.00,99.54
2071.00,99.54
2070.00,99.55
2069.00,99.55
2068.00,99.56
2067.00,99.57
2066.00,99.57
2065.00,99.57
2064.00,99.57
2063.00,99.57
2062.00,99.58
2061.00,99.58
2060.00,99.58
2059.00,99.58
2058.00,99.56
2057.00,99.54
2056.00,99.52
2055.00,99.51
2054.00,99.50
2053.00,99.46
2052.00,99.38
2051.00,99.31
2050.00,99.28
2049.00,99.29
2048.00,99.34
2047.00,99.38
2046.00,99.40
2045.00,99.40
2044.00,99.39
2043.00,99.38
2042.00,99.37
2041.00,99.36
2040.00,99.34
2039.00,99.32
2038.00,99.30
2037.00,99.27
2036.00,99.27
2035.00,99.28
2034.00,99.32
2033.00,99.36
2032.00,99.39
2031.00,99.43
2030.00,99.45
2029.00,99.45
2028.00,99.43
2027.00,99.42
2026.00,99.41
2025.00,99.40
2024.00,99.41
2023.00,99.42
2022.00,99.43
2021.00,99.42
2020.00,99.41
2019.00,99.41
2018.00,99.41
2017.00,99.41
2016.00,99.41
2015.00,99.42
2014.00,99.43
2013.00,99.45
2012.00,99.46
2011.00,99.46
2010.00,99.46
2009.00,99.47
2008.00,99.52
2007.00,99.59
2006.00,99.66
2005.00,99.71
2004.00,99.72
2003.00,99.71
2002.00,99.68
2001.00,99.65
2000.00,99.62
1999.00,99.59
1998.00,99.58
1997.00,99.56
1996.00,99.55
1995.00,99.55
1994.00,99.55
1993.00,99.54
1992.00,99.52
1991.00,99.51
1990.00,99.50
1989.00,99.49
1988.00,99.47
1987.00,99.46
1986.00,99.44
1985.00,99.41
1984.00,99.37
1983.00,99.33
1982.00,99.28
1981.00,99.22
1980.00,99.19
1979.00,99.23
1978.00,99.34
1977.00,99.47
1976.00,99.57
1975.00,99.63
1974.00,99.66
1973.00,99.67
1972.00,99.67
1971.00,99.66
1970.00,99.66
1969.00,99.66
1968.00,99.66
1967.00,99.66
1966.00,99.65
1965.00,99.64
1964.00,99.64
1963.00,99.66
1962.00,99.70
1961.00,99.73
1960.00,99.76
1959.00,99.79
1958.00,99.79
1957.00,99.78
1956.00,99.77
1955.00,99.75
1954.00,99.75
1953.00,99.74
1952.00,99.74
1951.00,99.74
1950.00,99.73
1949.00,99.73
1948.00,99.73
1947.00,99.73
1946.00,99.73
1945.00,99.73
1944.00,99.73
1943.00,99.73
1942.00,99.75
1941.00,99.76
1940.00,99.76
1939.00,99.76
1938.00,99.76
1937.00,99.76
1936.00,99.75
1935.00,99.76
1934.00,99.76
1933.00,99.76
1932.00,99.75
1931.00,99.75
1930.00,99.76
1929.00,99.77
1928.00,99.78
1927.00,99.78
1926.00,99.78
1925.00,99.77
1924.00,99.76
1923.00,99.75
1922.00,99.74
1921.00,99.72
1920.00,99.71
1919.00,99.71
1918.00,99.71
1917.00,99.71
1916.00,99.71
1915.00,99.71
1914.00,99.71
1913.00,99.71
1912.00,99.70
1911.00,99.70
1910.00,99.70
1909.00,99.69
1908.00,99.69
1907.00,99.69
1906.00,99.69
1905.00,99.69
1904.00,99.69
1903.00,99.69
1902.00,99.68
1901.00,99.67
1900.00,99.66
1899.00,99.66
1898.00,99.66
1897.00,99.66
1896.00,99.66
1895.00,99.66
1894.00,99.67
1893.00,99.68
1892.00,99.69
1891.00,99.70
1890.00,99.71
1889.00,99.71
1888.00,99.71
1887.00,99.72
1886.00,99.72
1885.00,99.73
1884.00,99.74
1883.00,99.75
1882.00,99.75
1881.00,99.75
1880.00,99.75
1879.00,99.76
1878.00,99.77
1877.00,99.77
1876.00,99.78
1875.00,99.78
1874.00,99.78
1873.00,99.78
1872.00,99.78
1871.00,99.78
1870.00,99.78
1869.00,99.77
1868.00,99.77
1867.00,99.76
1866.00,99.76
1865.00,99.77
1864.00,99.78
1863.00,99.79
1862.00,99.80
1861.00,99.80
1860.00,99.80
1859.00,99.80
1858.00,99.80
1857.00,99.80
1856.00,99.79
1855.00,99.79
1854.00,99.80
1853.00,99.80
1852.00,99.81
1851.00,99.81
1850.00,99.82
1849.00,99.82
1848.00,99.81
1847.00,99.80
1846.00,99.80
1845.00,99.79
1844.00,99.79
1843.00,99.80
1842.00,99.80
1841.00,99.80
1840.00,99.80
1839.00,99.80
1838.00,99.81
1837.00,99.81
1836.00,99.81
1835.00,99.81
1834.00,99.81
1833.00,99.80
1832.00,99.80
1831.00,99.79
1830.00,99.79
1829.00,99.79
1828.00,99.78
1827.00,99.78
1826.00,99.77
1825.00,99.76
1824.00,99.75
1823.00,99.75
1822.00,99.75
1821.00,99.75
1820.00,99.76
1819.00,99.78
1818.00,99.81
1817.00,99.83
1816.00,99.84
1815.00,99.83
1814.00,99.81
1813.00,99.80
1812.00,99.78
1811.00,99.77
1810.00,99.77
1809.00,99.77
1808.00,99.76
1807.00,99.76
1806.00,99.76
1805.00,99.75
1804.00,99.75
1803.00,99.74
1802.00,99.75
1801.00,99.75
1800.00,99.75
1799.00,99.75
1798.00,99.75
1797.00,99.75
1796.00,99.74
1795.00,99.74
1794.00,99.74
1793.00,99.74
1792.00,99.74
1791.00,99.75
1790.00,99.75
1789.00,99.75
1788.00,99.74
1787.00,99.74
1786.00,99.74
1785.00,99.74
1784.00,99.74
1783.00,99.74
1782.00,99.75
1781.00,99.75
1780.00,99.74
1779.00,99.74
1778.00,99.75
1777.00,99.75
1776.00,99.75
1775.00,99.76
1774.00,99.76
1773.00,99.76
1772.00,99.76
1771.00,99.76
1770.00,99.75
1769.00,99.75
1768.00,99.74
1767.00,99.74
1766.00,99.74
1765.00,99.74
1764.00,99.73
1763.00,99.74
1762.00,99.74
1761.00,99.74
1760.00,99.74
1759.00,99.73
1758.00,99.73
1757.00,99.73
1756.00,99.72
1755.00,99.72
1754.00,99.71
1753.00,99.71
1752.00,99.71
1751.00,99.71
1750.00,99.71
1749.00,99.70
1748.00,99.69
1747.00,99.69
1746.00,99.69
1745.00,99.68
1744.00,99.68
1743.00,99.68
1742.00,99.67
1741.00,99.67
1740.00,99.66
1739.00,99.66
1738.00,99.66
1737.00,99.65
1736.00,99.65
1735.00,99.65
1734.00,99.66
1733.00,99.65
1732.00,99.65
1731.00,99.64
1730.00,99.64
1729.00,99.64
1728.00,99.64
1727.00,99.63
1726.00,99.62
1725.00,99.60
1724.00,99.59
1723.00,99.59
1722.00,99.60
1721.00,99.60
1720.00,99.61
1719.00,99.62
1718.00,99.63
1717.00,99.63
1716.00,99.63
1715.00,99.64
1714.00,99.64
1713.00,99.64
1712.00,99.64
1711.00,99.65
1710.00,99.65
1709.00,99.65
1708.00,99.64
1707.00,99.64
1706.00,99.64
1705.00,99.64
1704.00,99.64
1703.00,99.64
1702.00,99.65
1701.00,99.65
1700.00,99.64
1699.00,99.64
1698.00,99.64
1697.00,99.64
1696.00,99.64
1695.00,99.65
1694.00,99.65
1693.00,99.65
1692.00,99.64
1691.00,99.65
1690.00,99.65
1689.00,99.64
1688.00,99.64
1687.00,99.64
1686.00,99.64
1685.00,99.64
1684.00,99.64
1683.00,99.64
1682.00,99.64
1681.00,99.64
1680.00,99.64
1679.00,99.64
1678.00,99.63
1677.00,99.63
1676.00,99.63
1675.00,99.63
1674.00,99.63
1673.00,99.62
1672.00,99.61
1671.00,99.61
1670.00,99.61
1669.00,99.61
1668.00,99.61
1667.00,99.61
1666.00,99.61
1665.00,99.61
1664.00,99.61
1663.00,99.61
1662.00,99.61
1661.00,99.60
1660.00,99.60
1659.00,99.60
1658.00,99.60
1657.00,99.59
1656.00,99.58
1655.00,99.57
1654.00,99.57
1653.00,99.55
1652.00,99.54
1651.00,99.52
1650.00,99.51
1649.00,99.50
1648.00,99.49
1647.00,99.49
1646.00,99.49
1645.00,99.48
1644.00,99.48
1643.00,99.49
1642.00,99.49
1641.00,99.49
1640.00,99.50
1639.00,99.50
1638.00,99.50
1637.00,99.51
1636.00,99.51
1635.00,99.51
1634.00,99.52
1633.00,99.52
1632.00,99.52
1631.00,99.52
1630.00,99.53
1629.00,99.53
1628.00,99.52
1627.00,99.53
1626.00,99.53
1625.00,99.52
1624.00,99.52
1623.00,99.52
1622.00,99.52
1621.00,99.52
1620.00,99.52
1619.00,99.53
1618.00,99.53
1617.00,99.53
1616.00,99.53
1615.00,99.53
1614.00,99.53
1613.00,99.52
1612.00,99.52
1611.00,99.51
1610.00,99.51
1609.00,99.50
1608.00,99.48
1607.00,99.48
1606.00,99.47
1605.00,99.45
1604.00,99.44
1603.00,99.43
1602.00,99.43
1601.00,99.43
1600.00,99.44
1599.00,99.45
1598.00,99.45
1597.00,99.46
1596.00,99.46
1595.00,99.46
1594.00,99.46
1593.00,99.46
1592.00,99.46
1591.00,99.46
1590.00,99.46
1589.00,99.45
1588.00,99.44
1587.00,99.44
1586.00,99.44
1585.00,99.43
1584.00,99.43
1583.00,99.43
1582.00,99.44
1581.00,99.44
1580.00,99.45
1579.00,99.45
1578.00,99.46
1577.00,99.46
1576.00,99.46
1575.00,99.46
1574.00,99.46
1573.00,99.45
1572.00,99.45
1571.00,99.45
1570.00,99.45
1569.00,99.44
1568.00,99.43
1567.00,99.43
1566.00,99.43
1565.00,99.42
1564.00,99.42
1563.00,99.42
1562.00,99.42
1561.00,99.41
1560.00,99.40
1559.00,99.40
1558.00,99.40
1557.00,99.39
1556.00,99.37
1555.00,99.37
1554.00,99.37
1553.00,99.36
1552.00,99.34
1551.00,99.34
1550.00,99.33
1549.00,99.32
1548.00,99.31
1547.00,99.30
1546.00,99.30
1545.00,99.29
1544.00,99.29
1543.00,99.30
1542.00,99.31
1541.00,99.31
1540.00,99.30
1539.00,99.31
1538.00,99.31
1537.00,99.31
1536.00,99.30
1535.00,99.30
1534.00,99.30
1533.00,99.29
1532.00,99.28
1531.00,99.28
1530.00,99.28
1529.00,99.27
1528.00,99.26
1527.00,99.25
1526.00,99.25
1525.00,99.23
1524.00,99.22
1523.00,99.21
1522.00,99.21
1521.00,99.20
1520.00,99.18
1519.00,99.18
1518.00,99.19
1517.00,99.17
1516.00,99.15
1515.00,99.15
1514.00,99.14
1513.00,99.12
1512.00,99.10
1511.00,99.08
1510.00,99.07
1509.00,99.04
1508.00,99.00
1507.00,99.00
1506.00,99.00
1505.00,98.98
1504.00,98.95
1503.00,98.93
1502.00,98.91
1501.00,98.87
1500.00,98.82
1499.00,98.77
1498.00,98.72
1497.00,98.63
1496.00,98.54
1495.00,98.49
1494.00,98.46
1493.00,98.42
1492.00,98.37
1491.00,98.34
1490.00,98.30
1489.00,98.22
1488.00,98.13
1487.00,98.05
1486.00,97.95
1485.00,97.81
1484.00,97.63
1483.00,97.43
1482.00,97.16
1481.00,96.77
1480.00,96.27
1479.00,95.58
1478.00,94.43
1477.00,92.48
1476.00,89.62
1475.00,86.02
1474.00,81.96
1473.00,78.17
1472.00,75.71
1471.00,74.73
1470.00,74.48
1469.00,74.43
1468.00,74.46
1467.00,74.64
1466.00,75.07
1465.00,75.87
1464.00,77.06
1463.00,78.51
1462.00,80.07
1461.00,81.64
1460.00,83.11
1459.00,84.38
1458.00,85.46
1457.00,86.42
1456.00,87.27
1455.00,88.03
1454.00,88.79
1453.00,89.62
1452.00,90.47
1451.00,91.21
1450.00,91.83
1449.00,92.35
1448.00,92.79
1447.00,93.13
1446.00,93.39
1445.00,93.63
1444.00,93.84
1443.00,94.04
1442.00,94.23
1441.00,94.42
1440.00,94.62
1439.00,94.80
1438.00,95.01
1437.00,95.27
1436.00,95.55
1435.00,95.79
1434.00,96.01
1433.00,96.26
1432.00,96.53
1431.00,96.80
1430.00,97.07
1429.00,97.34
1428.00,97.57
1427.00,97.75
1426.00,97.91
1425.00,98.07
1424.00,98.22
1423.00,98.33
1422.00,98.41
1421.00,98.48
1420.00,98.55
1419.00,98.61
1418.00,98.65
1417.00,98.69
1416.00,98.73
1415.00,98.76
1414.00,98.78
1413.00,98.81
1412.00,98.83
1411.00,98.85
1410.00,98.86
1409.00,98.88
1408.00,98.90
1407.00,98.90
1406.00,98.90
1405.00,98.91
1404.00,98.93
1403.00,98.93
1402.00,98.93
1401.00,98.93
1400.00,98.94
1399.00,98.93
1398.00,98.91
1397.00,98.91
1396.00,98.91
1395.00,98.90
1394.00,98.89
1393.00,98.88
1392.00,98.87
1391.00,98.85
1390.00,98.81
1389.00,98.77
1388.00,98.70
1387.00,98.59
1386.00,98.45
1385.00,98.27
1384.00,98.03
1383.00,97.69
1382.00,97.28
1381.00,96.85
1380.00,96.45
1379.00,96.14
1378.00,96.00
1377.00,96.04
1376.00,96.21
1375.00,96.43
1374.00,96.64
1373.00,96.80
1372.00,96.88
1371.00,96.92
1370.00,96.95
1369.00,97.00
1368.00,97.06
1367.00,97.14
1366.00,97.22
1365.00,97.32
1364.00,97.41
1363.00,97.51
1362.00,97.59
1361.00,97.67
1360.00,97.73
1359.00,97.76
1358.00,97.78
1357.00,97.79
1356.00,97.79
1355.00,97.77
1354.00,97.76
1353.00,97.76
1352.00,97.77
1351.00,97.78
1350.00,97.81
1349.00,97.85
1348.00,97.89
1347.00,97.94
1346.00,97.98
1345.00,98.02
1344.00,98.06
1343.00,98.08
1342.00,98.11
1341.00,98.15
1340.00,98.19
1339.00,98.25
1338.00,98.31
1337.00,98.37
1336.00,98.45
1335.00,98.51
1334.00,98.56
1333.00,98.60
1332.00,98.63
1331.00,98.65
1330.00,98.66
1329.00,98.66
1328.00,98.67
1327.00,98.66
1326.00,98.65
1325.00,98.64
1324.00,98.63
1323.00,98.61
1322.00,98.58
1321.00,98.55
1320.00,98.53
1319.00,98.50
1318.00,98.47
1317.00,98.45
1316.00,98.42
1315.00,98.38
1314.00,98.35
1313.00,98.31
1312.00,98.28
1311.00,98.25
1310.00,98.23
1309.00,98.20
1308.00,98.19
1307.00,98.17
1306.00,98.16
1305.00,98.15
1304.00,98.16
1303.00,98.16
1302.00,98.16
1301.00,98.17
1300.00,98.18
1299.00,98.20
1298.00,98.22
1297.00,98.24
1296.00,98.27
1295.00,98.30
1294.00,98.34
1293.00,98.37
1292.00,98.41
1291.00,98.44
1290.00,98.47
1289.00,98.50
1288.00,98.53
1287.00,98.55
1286.00,98.57
1285.00,98.59
1284.00,98.61
1283.00,98.63
1282.00,98.65
1281.00,98.66
1280.00,98.68
1279.00,98.69
1278.00,98.69
1277.00,98.70
1276.00,98.71
1275.00,98.72
1274.00,98.73
1273.00,98.74
1272.00,98.75
1271.00,98.76
1270.00,98.77
1269.00,98.78
1268.00,98.80
1267.00,98.81
1266.00,98.82
1265.00,98.84
1264.00,98.85
1263.00,98.86
1262.00,98.88
1261.00,98.89
1260.00,98.91
1259.00,98.92
1258.00,98.93
1257.00,98.95
1256.00,98.98
1255.00,99.00
1254.00,99.03
1253.00,99.06
1252.00,99.09
1251.00,99.12
1250.00,99.15
1249.00,99.18
1248.00,99.21
1247.00,99.23
1246.00,99.25
1245.00,99.28
1244.00,99.30
1243.00,99.31
1242.00,99.32
1241.00,99.34
1240.00,99.35
1239.00,99.36
1238.00,99.37
1237.00,99.37
1236.00,99.38
1235.00,99.38
1234.00,99.37
1233.00,99.36
1232.00,99.36
1231.00,99.35
1230.00,99.34
1229.00,99.34
1228.00,99.34
1227.00,99.33
1226.00,99.32
1225.00,99.31
1224.00,99.31
1223.00,99.32
1222.00,99.31
1221.00,99.31
1220.00,99.31
1219.00,99.30
1218.00,99.29
1217.00,99.30
1216.00,99.30
1215.00,99.29
1214.00,99.28
1213.00,99.27
1212.00,99.27
1211.00,99.27
1210.00,99.26
1209.00,99.26
1208.00,99.26
1207.00,99.25
1206.00,99.24
1205.00,99.25
1204.00,99.25
1203.00,99.25
1202.00,99.24
1201.00,99.24
1200.00,99.24
1199.00,99.23
1198.00,99.23
1197.00,99.22
1196.00,99.22
1195.00,99.22
1194.00,99.21
1193.00,99.21
1192.00,99.21
1191.00,99.21
1190.00,99.21
1189.00,99.21
1188.00,99.21
1187.00,99.20
1186.00,99.19
1185.00,99.18
1184.00,99.18
1183.00,99.17
1182.00,99.17
1181.00,99.17
1180.00,99.16
1179.00,99.15
1178.00,99.15
1177.00,99.14
1176.00,99.14
1175.00,99.13
1174.00,99.13
1173.00,99.13
1172.00,99.13
1171.00,99.13
1170.00,99.13
1169.00,99.13
1168.00,99.14
1167.00,99.14
1166.00,99.14
1165.00,99.15
1164.00,99.15
1163.00,99.14
1162.00,99.13
1161.00,99.12
1160.00,99.13
1159.00,99.12
1158.00,99.12
1157.00,99.11
1156.00,99.10
1155.00,99.09
1154.00,99.09
1153.00,99.09
1152.00,99.09
1151.00,99.10
1150.00,99.10
1149.00,99.10
1148.00,99.10
1147.00,99.11
1146.00,99.11
1145.00,99.11
1144.00,99.12
1143.00,99.12
1142.00,99.12
1141.00,99.11
1140.00,99.11
1139.00,99.11
1138.00,99.11
1137.00,99.12
1136.00,99.13
1135.00,99.13
1134.00,99.13
1133.00,99.13
1132.00,99.13
1131.00,99.12
1130.00,99.12
1129.00,99.12
1128.00,99.13
1127.00,99.14
1126.00,99.15
1125.00,99.15
1124.00,99.16
1123.00,99.17
1122.00,99.17
1121.00,99.17
1120.00,99.17
1119.00,99.17
1118.00,99.16
1117.00,99.16
1116.00,99.17
1115.00,99.17
1114.00,99.17
1113.00,99.17
1112.00,99.17
1111.00,99.17
1110.00,99.16
1109.00,99.16
1108.00,99.16
1107.00,99.16
1106.00,99.15
1105.00,99.14
1104.00,99.14
1103.00,99.13
1102.00,99.12
1101.00,99.11
1100.00,99.09
1099.00,99.08
1098.00,99.06
1097.00,99.05
1096.00,99.04
1095.00,99.03
1094.00,99.01
1093.00,99.00
1092.00,98.98
1091.00,98.95
1090.00,98.93
1089.00,98.92
1088.00,98.91
1087.00,98.90
1086.00,98.89
1085.00,98.87
1084.00,98.86
1083.00,98.85
1082.00,98.84
1081.00,98.84
1080.00,98.84
1079.00,98.85
1078.00,98.85
1077.00,98.87
1076.00,98.88
1075.00,98.88
1074.00,98.88
1073.00,98.88
1072.00,98.88
1071.00,98.88
1070.00,98.89
1069.00,98.91
1068.00,98.92
1067.00,98.92
1066.00,98.92
1065.00,98.92
1064.00,98.92
1063.00,98.92
1062.00,98.92
1061.00,98.93
1060.00,98.94
1059.00,98.96
1058.00,98.98
1057.00,98.99
1056.00,99.00
1055.00,99.00
1054.00,99.00
1053.00,99.00
1052.00,99.01
1051.00,99.02
1050.00,99.03
1049.00,99.04
1048.00,99.04
1047.00,99.05
1046.00,99.05
1045.00,99.06
1044.00,99.06
1043.00,99.07
1042.00,99.07
1041.00,99.08
1040.00,99.09
1039.00,99.09
1038.00,99.10
1037.00,99.10
1036.00,99.10
1035.00,99.09
1034.00,99.09
1033.00,99.09
1032.00,99.09
1031.00,99.09
1030.00,99.09
1029.00,99.09
1028.00,99.10
1027.00,99.10
1026.00,99.11
1025.00,99.11
1024.00,99.12
1023.00,99.13
1022.00,99.13
1021.00,99.13
1020.00,99.12
1019.00,99.12
1018.00,99.11
1017.00,99.11
1016.00,99.12
1015.00,99.12
1014.00,99.12
1013.00,99.12
1012.00,99.12
1011.00,99.13
1010.00,99.13
1009.00,99.13
1008.00,99.13
1007.00,99.14
1006.00,99.14
1005.00,99.14
1004.00,99.15
1003.00,99.15
1002.00,99.15
1001.00,99.16
1000.00,99.16
999.00,99.17
998.00,99.16
997.00,99.16
996.00,99.16
995.00,99.16
994.00,99.16
993.00,99.16
992.00,99.17
991.00,99.17
990.00,99.18
989.00,99.18
988.00,99.18
987.00,99.19
986.00,99.19
985.00,99.18
984.00,99.18
983.00,99.18
982.00,99.18
981.00,99.18
980.00,99.17
979.00,99.15
978.00,99.13
977.00,99.11
976.00,99.10
975.00,99.09
974.00,99.07
973.00,99.04
972.00,99.03
971.00,99.01
970.00,98.99
969.00,98.98
968.00,98.96
967.00,98.95
966.00,98.94
965.00,98.94
964.00,98.96
963.00,98.98
962.00,99.00
961.00,99.03
960.00,99.06
959.00,99.08
958.00,99.10
957.00,99.12
956.00,99.14
955.00,99.15
954.00,99.16
953.00,99.17
952.00,99.18
951.00,99.19
950.00,99.19
949.00,99.19
948.00,99.20
947.00,99.20
946.00,99.21
945.00,99.21
944.00,99.21
943.00,99.21
942.00,99.22
941.00,99.22
940.00,99.22
939.00,99.21
938.00,99.20
937.00,99.20
936.00,99.21
935.00,99.21
934.00,99.20
933.00,99.19
932.00,99.18
931.00,99.18
930.00,99.18
929.00,99.20
928.00,99.21
927.00,99.20
926.00,99.19
925.00,99.18
924.00,99.16
923.00,99.14
922.00,99.13
921.00,99.12
920.00,99.12
919.00,99.11
918.00,99.10
917.00,99.09
916.00,99.08
915.00,99.06
914.00,99.04
913.00,99.02
912.00,99.00
911.00,98.98
910.00,98.96
909.00,98.96
908.00,98.96
907.00,98.97
906.00,98.99
905.00,99.01
904.00,99.02
903.00,99.04
902.00,99.03
901.00,99.02
900.00,99.00
899.00,98.98
898.00,98.96
897.00,98.94
896.00,98.93
895.00,98.90
894.00,98.87
893.00,98.84
892.00,98.79
891.00,98.75
890.00,98.71
889.00,98.68
888.00,98.66
887.00,98.66
886.00,98.68
885.00,98.72
884.00,98.77
883.00,98.82
882.00,98.87
881.00,98.93
880.00,98.98
879.00,99.02
878.00,99.05
877.00,99.08
876.00,99.10
875.00,99.12
874.00,99.13
873.00,99.14
872.00,99.15
871.00,99.16
870.00,99.17
869.00,99.17
868.00,99.17
867.00,99.16
866.00,99.16
865.00,99.16
864.00,99.17
863.00,99.17
862.00,99.17
861.00,99.17
860.00,99.17
859.00,99.17
858.00,99.17
857.00,99.17
856.00,99.18
855.00,99.18
854.00,99.17
853.00,99.16
852.00,99.15
851.00,99.15
850.00,99.15
849.00,99.15
848.00,99.16
847.00,99.17
846.00,99.17
845.00,99.17
844.00,99.17
843.00,99.16
842.00,99.16
841.00,99.15
840.00,99.15
839.00,99.15
838.00,99.14
837.00,99.15
836.00,99.16
835.00,99.16
834.00,99.15
833.00,99.13
832.00,99.12
831.00,99.12
830.00,99.12
829.00,99.13
828.00,99.12
827.00,99.11
826.00,99.10
825.00,99.10
824.00,99.11
823.00,99.11
822.00,99.11
821.00,99.10
820.00,99.08
819.00,99.07
818.00,99.06
817.00,99.05
816.00,99.04
815.00,99.03
814.00,99.03
813.00,99.03
812.00,99.02
811.00,99.01
810.00,99.00
809.00,99.00
808.00,99.01
807.00,99.00
806.00,98.99
805.00,98.97
804.00,98.95
803.00,98.93
802.00,98.91
801.00,98.90
800.00,98.89
799.00,98.86
798.00,98.83
797.00,98.80
796.00,98.78
795.00,98.76
794.00,98.74
793.00,98.73
792.00,98.71
791.00,98.70
790.00,98.67
789.00,98.64
788.00,98.62
787.00,98.60
786.00,98.57
785.00,98.53
784.00,98.49
783.00,98.45
782.00,98.41
781.00,98.38
780.00,98.35
779.00,98.33
778.00,98.30
777.00,98.28
776.00,98.27
775.00,98.25
774.00,98.22
773.00,98.19
772.00,98.16
771.00,98.13
770.00,98.09
769.00,98.05
768.00,98.01
767.00,97.97
766.00,97.93
765.00,97.90
764.00,97.88
763.00,97.87
762.00,97.86
761.00,97.85
760.00,97.84
759.00,97.82
758.00,97.79
757.00,97.76
756.00,97.74
755.00,97.72
754.00,97.72
753.00,97.71
752.00,97.69
751.00,97.66
750.00,97.62
749.00,97.56
748.00,97.50
747.00,97.44
746.00,97.37
745.00,97.30
744.00,97.21
743.00,97.12
742.00,97.01
741.00,96.87
740.00,96.71
739.00,96.52
738.00,96.29
737.00,95.98
736.00,95.56
735.00,94.92
734.00,93.96
733.00,92.63
732.00,91.05
731.00,89.55
730.00,88.41
729.00,87.71
728.00,87.21
727.00,86.61
726.00,85.68
725.00,84.35
724.00,82.63
723.00,80.51
722.00,78.02
721.00,75.37
720.00,73.00
719.00,71.44
718.00,71.13
717.00,72.26
716.00,74.72
715.00,78.11
714.00,81.78
713.00,85.13
712.00,87.84
711.00,89.89
710.00,91.40
709.00,92.54
708.00,93.41
707.00,94.10
706.00,94.64
705.00,95.09
704.00,95.47
703.00,95.77
702.00,96.02
701.00,96.23
700.00,96.41
699.00,96.60
698.00,96.79
697.00,97.01
696.00,97.24
695.00,97.47
694.00,97.68
693.00,97.88
692.00,98.06
691.00,98.19
690.00,98.30
689.00,98.38
688.00,98.46
687.00,98.52
686.00,98.58
685.00,98.63
684.00,98.68
683.00,98.72
682.00,98.74
681.00,98.77
680.00,98.79
679.00,98.81
678.00,98.82
677.00,98.85
676.00,98.89
675.00,98.92
674.00,98.94
673.00,98.96
672.00,98.97
671.00,98.96
670.00,98.93
669.00,98.91
668.00,98.94
667.00,99.00
666.00,99.06
665.00,99.10
664.00,99.11
663.00,99.09
662.00,99.08
661.00,99.10
660.00,99.15
659.00,99.21
658.00,99.27
657.00,99.30
656.00,99.32
655.00,99.31
654.00,99.30
653.00,99.28
652.00,99.26
651.00,99.26
650.00,99.27
