Created as New Dataset,PE Low Density GF
cm-1,%T
4000.00,99.88
3999.00,99.88
3998.00,99.88
3997.00,99.88
3996.00,99.88
3995.00,99.87
3994.00,99.87
3993.00,99.87
3992.00,99.87
3991.00,99.87
3990.00,99.88
3989.00,99.88
3988.00,99.88
3987.00,99.87
3986.00,99.87
3985.00,99.87
3984.00,99.88
3983.00,99.88
3982.00,99.88
3981.00,99.88
3980.00,99.88
3979.00,99.87
3978.00,99.87
3977.00,99.87
3976.00,99.88
3975.00,99.88
3974.00,99.88
3973.00,99.88
3972.00,99.88
3971.00,99.88
3970.00,99.88
3969.00,99.88
3968.00,99.88
3967.00,99.88
3966.00,99.88
3965.00,99.88
3964.00,99.88
3963.00,99.88
3962.00,99.88
3961.00,99.88
3960.00,99.88
3959.00,99.89
3958.00,99.89
3957.00,99.89
3956.00,99.89
3955.00,99.88
3954.00,99.88
3953.00,99.88
3952.00,99.88
3951.00,99.88
3950.00,99.88
3949.00,99.88
3948.00,99.88
3947.00,99.88
3946.00,99.88
3945.00,99.88
3944.00,99.88
3943.00,99.88
3942.00,99.88
3941.00,99.88
3940.00,99.88
3939.00,99.88
3938.00,99.88
3937.00,99.87
3936.00,99.87
3935.00,99.87
3934.00,99.86
3933.00,99.86
3932.00,99.86
3931.00,99.86
3930.00,99.86
3929.00,99.86
3928.00,99.86
3927.00,99.86
3926.00,99.86
3925.00,99.86
3924.00,99.86
3923.00,99.86
3922.00,99.86
3921.00,99.86
3920.00,99.86
3919.00,99.86
3918.00,99.85
3917.00,99.85
3916.00,99.85
3915.00,99.85
3914.00,99.85
3913.00,99.85
3912.00,99.86
3911.00,99.86
3910.00,99.86
3909.00,99.86
3908.00,99.86
3907.00,99.86
3906.00,99.85
3905.00,99.85
3904.00,99.85
3903.00,99.85
3902.00,99.85
3901.00,99.85
3900.00,99.85
3899.00,99.86
3898.00,99.86
3897.00,99.86
3896.00,99.85
3895.00,99.85
3894.00,99.84
3893.00,99.84
3892.00,99.84
3891.00,99.85
3890.00,99.85
3889.00,99.85
3888.00,99.85
3887.00,99.85
3886.00,99.85
3885.00,99.85
3884.00,99.84
3883.00,99.84
3882.00,99.84
3881.00,99.84
3880.00,99.85
3879.00,99.86
3878.00,99.86
3877.00,99.86
3876.00,99.86
3875.00,99.86
3874.00,99.85
3873.00,99.85
3872.00,99.85
3871.00,99.85
3870.00,99.85
3869.00,99.86
3868.00,99.86
3867.00,99.85
3866.00,99.85
3865.00,99.85
3864.00,99.86
3863.00,99.86
3862.00,99.86
3861.00,99.87
3860.00,99.87
3859.00,99.87
3858.00,99.87
3857.00,99.87
3856.00,99.87
3855.00,99.86
3854.00,99.86
3853.00,99.85
3852.00,99.85
3851.00,99.85
3850.00,99.86
3849.00,99.86
3848.00,99.86
3847.00,99.86
3846.00,99.86
3845.00,99.86
3844.00,99.87
3843.00,99.87
3842.00,99.87
3841.00,99.87
3840.00,99.86
3839.00,99.86
3838.00,99.85
3837.00,99.85
3836.00,99.85
3835.00,99.86
3834.00,99.86
3833.00,99.86
3832.00,99.85
3831.00,99.85
3830.00,99.85
3829.00,99.85
3828.00,99.85
3827.00,99.85
3826.00,99.86
3825.00,99.85
3824.00,99.85
3823.00,99.84
3822.00,99.84
3821.00,99.84
3820.00,99.85
3819.00,99.85
3818.00,99.85
3817.00,99.85
3816.00,99.85
3815.00,99.86
3814.00,99.86
3813.00,99.86
3812.00,99.85
3811.00,99.85
3810.00,99.85
3809.00,99.85
3808.00,99.86
3807.00,99.86
3806.00,99.86
3805.00,99.87
3804.00,99.87
3803.00,99.87
3802.00,99.87
3801.00,99.87
3800.00,99.87
3799.00,99.87
3798.00,99.87
3797.00,99.87
3796.00,99.87
3795.00,99.87
3794.00,99.87
3793.00,99.87
3792.00,99.87
3791.00,99.87
3790.00,99.87
3789.00,99.87
3788.00,99.87
3787.00,99.87
3786.00,99.87
3785.00,99.87
3784.00,99.87
3783.00,99.87
3782.00,99.87
3781.00,99.87
3780.00,99.87
3779.00,99.87
3778.00,99.87
3777.00,99.86
3776.00,99.86
3775.00,99.86
3774.00,99.86
3773.00,99.86
3772.00,99.86
3771.00,99.86
3770.00,99.86
3769.00,99.86
3768.00,99.86
3767.00,99.86
3766.00,99.86
3765.00,99.86
3764.00,99.86
3763.00,99.86
3762.00,99.86
3761.00,99.86
3760.00,99.86
3759.00,99.86
3758.00,99.86
3757.00,99.86
3756.00,99.85
3755.00,99.85
3754.00,99.85
3753.00,99.85
3752.00,99.84
3751.00,99.85
3750.00,99.85
3749.00,99.85
3748.00,99.85
3747.00,99.86
3746.00,99.87
3745.00,99.88
3744.00,99.88
3743.00,99.87
3742.00,99.86
3741.00,99.85
3740.00,99.85
3739.00,99.85
3738.00,99.85
3737.00,99.85
3736.00,99.86
3735.00,99.86
3734.00,99.87
3733.00,99.87
3732.00,99.86
3731.00,99.86
3730.00,99.86
3729.00,99.86
3728.00,99.86
3727.00,99.86
3726.00,99.86
3725.00,99.86
3724.00,99.87
3723.00,99.87
3722.00,99.87
3721.00,99.87
3720.00,99.87
3719.00,99.86
3718.00,99.87
3717.00,99.87
3716.00,99.87
3715.00,99.87
3714.00,99.87
3713.00,99.87
3712.00,99.87
3711.00,99.87
3710.00,99.86
3709.00,99.86
3708.00,99.86
3707.00,99.86
3706.00,99.86
3705.00,99.86
3704.00,99.86
3703.00,99.86
3702.00,99.86
3701.00,99.85
3700.00,99.85
3699.00,99.85
3698.00,99.85
3697.00,99.85
3696.00,99.85
3695.00,99.85
3694.00,99.84
3693.00,99.84
3692.00,99.85
3691.00,99.85
3690.00,99.85
3689.00,99.85
3688.00,99.85
3687.00,99.85
3686.00,99.84
3685.00,99.84
3684.00,99.84
3683.00,99.83
3682.00,99.83
3681.00,99.82
3680.00,99.81
3679.00,99.80
3678.00,99.79
3677.00,99.79
3676.00,99.80
3675.00,99.81
3674.00,99.81
3673.00,99.81
3672.00,99.82
3671.00,99.82
3670.00,99.82
3669.00,99.82
3668.00,99.82
3667.00,99.82
3666.00,99.82
3665.00,99.82
3664.00,99.82
3663.00,99.82
3662.00,99.82
3661.00,99.82
3660.00,99.82
3659.00,99.81
3658.00,99.81
3657.00,99.81
3656.00,99.80
3655.00,99.80
3654.00,99.79
3653.00,99.78
3652.00,99.78
3651.00,99.78
3650.00,99.78
3649.00,99.77
3648.00,99.77
3647.00,99.76
3646.00,99.76
3645.00,99.77
3644.00,99.77
3643.00,99.78
3642.00,99.78
3641.00,99.78
3640.00,99.78
3639.00,99.78
3638.00,99.78
3637.00,99.78
3636.00,99.78
3635.00,99.78
3634.00,99.78
3633.00,99.77
3632.00,99.77
3631.00,99.76
3630.00,99.76
3629.00,99.77
3628.00,99.76
3627.00,99.76
3626.00,99.76
3625.00,99.76
3624.00,99.76
3623.00,99.76
3622.00,99.75
3621.00,99.75
3620.00,99.74
3619.00,99.73
3618.00,99.72
3617.00,99.71
3616.00,99.70
3615.00,99.70
3614.00,99.69
3613.00,99.68
3612.00,99.68
3611.00,99.67
3610.00,99.66
3609.00,99.65
3608.00,99.64
3607.00,99.64
3606.00,99.64
3605.00,99.64
3604.00,99.64
3603.00,99.64
3602.00,99.65
3601.00,99.65
3600.00,99.66
3599.00,99.67
3598.00,99.68
3597.00,99.69
3596.00,99.69
3595.00,99.70
3594.00,99.71
3593.00,99.71
3592.00,99.71
3591.00,99.72
3590.00,99.72
3589.00,99.72
3588.00,99.72
3587.00,99.72
3586.00,99.72
3585.00,99.72
3584.00,99.72
3583.00,99.71
3582.00,99.71
3581.00,99.71
3580.00,99.72
3579.00,99.72
3578.00,99.73
3577.00,99.73
3576.00,99.72
3575.00,99.72
3574.00,99.71
3573.00,99.71
3572.00,99.70
3571.00,99.70
3570.00,99.69
3569.00,99.68
3568.00,99.68
3567.00,99.68
3566.00,99.68
3565.00,99.69
3564.00,99.69
3563.00,99.68
3562.00,99.68
3561.00,99.67
3560.00,99.67
3559.00,99.67
3558.00,99.67
3557.00,99.67
3556.00,99.67
3555.00,99.67
3554.00,99.66
3553.00,99.66
3552.00,99.65
3551.00,99.65
3550.00,99.64
3549.00,99.64
3548.00,99.64
3547.00,99.64
3546.00,99.65
3545.00,99.65
3544.00,99.65
3543.00,99.65
3542.00,99.65
3541.00,99.64
3540.00,99.64
3539.00,99.63
3538.00,99.63
3537.00,99.63
3536.00,99.63
3535.00,99.63
3534.00,99.63
3533.00,99.62
3532.00,99.62
3531.00,99.61
3530.00,99.61
3529.00,99.60
3528.00,99.59
3527.00,99.59
3526.00,99.59
3525.00,99.59
3524.00,99.59
3523.00,99.59
3522.00,99.59
3521.00,99.59
3520.00,99.59
3519.00,99.58
3518.00,99.58
3517.00,99.57
3516.00,99.57
3515.00,99.56
3514.00,99.56
3513.00,99.55
3512.00,99.55
3511.00,99.55
3510.00,99.55
3509.00,99.55
3508.00,99.54
3507.00,99.54
3506.00,99.53
3505.00,99.52
3504.00,99.52
3503.00,99.51
3502.00,99.51
3501.00,99.51
3500.00,99.51
3499.00,99.51
3498.00,99.50
3497.00,99.50
3496.00,99.49
3495.00,99.48
3494.00,99.48
3493.00,99.48
3492.00,99.48
3491.00,99.47
3490.00,99.47
3489.00,99.46
3488.00,99.46
3487.00,99.45
3486.00,99.44
3485.00,99.44
3484.00,99.43
3483.00,99.43
3482.00,99.42
3481.00,99.42
3480.00,99.42
3479.00,99.41
3478.00,99.41
3477.00,99.40
3476.00,99.40
3475.00,99.39
3474.00,99.39
3473.00,99.39
3472.00,99.38
3471.00,99.38
3470.00,99.37
3469.00,99.36
3468.00,99.35
3467.00,99.35
3466.00,99.34
3465.00,99.34
3464.00,99.33
3463.00,99.33
3462.00,99.32
3461.00,99.32
3460.00,99.31
3459.00,99.31
3458.00,99.31
3457.00,99.31
3456.00,99.31
3455.00,99.31
3454.00,99.30
3453.00,99.30
3452.00,99.29
3451.00,99.29
3450.00,99.28
3449.00,99.28
3448.00,99.27
3447.00,99.27
3446.00,99.26
3445.00,99.26
3444.00,99.26
3443.00,99.26
3442.00,99.25
3441.00,99.25
3440.00,99.24
3439.00,99.24
3438.00,99.23
3437.00,99.23
3436.00,99.23
3435.00,99.22
3434.00,99.22
3433.00,99.22
3432.00,99.22
3431.00,99.22
3430.00,99.22
3429.00,99.22
3428.00,99.21
3427.00,99.21
3426.00,99.20
3425.00,99.20
3424.00,99.20
3423.00,99.20
3422.00,99.20
3421.00,99.20
3420.00,99.20
3419.00,99.20
3418.00,99.19
3417.00,99.19
3416.00,99.19
3415.00,99.19
3414.00,99.18
3413.00,99.18
3412.00,99.18
3411.00,99.18
3410.00,99.17
3409.00,99.17
3408.00,99.17
3407.00,99.17
3406.00,99.17
3405.00,99.16
3404.00,99.16
3403.00,99.16
3402.00,99.17
3401.00,99.17
3400.00,99.17
3399.00,99.17
3398.00,99.16
3397.00,99.16
3396.00,99.15
3395.00,99.15
3394.00,99.15
3393.00,99.15
3392.00,99.15
3391.00,99.16
3390.00,99.16
3389.00,99.16
3388.00,99.16
3387.00,99.16
3386.00,99.16
3385.00,99.15
3384.00,99.15
3383.00,99.14
3382.00,99.14
3381.00,99.14
3380.00,99.14
3379.00,99.14
3378.00,99.14
3377.00,99.14
3376.00,99.14
3375.00,99.14
3374.00,99.13
3373.00,99.13
3372.00,99.13
3371.00,99.13
3370.00,99.13
3369.00,99.13
3368.00,99.12
3367.00,99.12
3366.00,99.12
3365.00,99.12
3364.00,99.12
3363.00,99.12
3362.00,99.11
3361.00,99.11
3360.00,99.11
3359.00,99.11
3358.00,99.11
3357.00,99.11
3356.00,99.11
3355.00,99.10
3354.00,99.10
3353.00,99.10
3352.00,99.10
3351.00,99.10
3350.00,99.10
3349.00,99.10
3348.00,99.10
3347.00,99.10
3346.00,99.11
3345.00,99.11
3344.00,99.11
3343.00,99.12
3342.00,99.12
3341.00,99.12
3340.00,99.11
3339.00,99.11
3338.00,99.12
3337.00,99.12
3336.00,99.13
3335.00,99.13
3334.00,99.13
3333.00,99.13
3332.00,99.13
3331.00,99.13
3330.00,99.13
3329.00,99.14
3328.00,99.14
3327.00,99.15
3326.00,99.15
3325.00,99.15
3324.00,99.15
3323.00,99.15
3322.00,99.15
3321.00,99.16
3320.00,99.16
3319.00,99.16
3318.00,99.16
3317.00,99.16
3316.00,99.17
3315.00,99.17
3314.00,99.18
3313.00,99.18
3312.00,99.18
3311.00,99.18
3310.00,99.18
3309.00,99.18
3308.00,99.18
3307.00,99.18
3306.00,99.18
3305.00,99.18
3304.00,99.18
3303.00,99.19
3302.00,99.19
3301.00,99.19
3300.00,99.19
3299.00,99.19
3298.00,99.20
3297.00,99.20
3296.00,99.21
3295.00,99.21
3294.00,99.21
3293.00,99.21
3292.00,99.21
3291.00,99.21
3290.00,99.21
3289.00,99.21
3288.00,99.21
3287.00,99.21
3286.00,99.21
3285.00,99.21
3284.00,99.21
3283.00,99.21
3282.00,99.21
3281.00,99.21
3280.00,99.21
3279.00,99.22
3278.00,99.22
3277.00,99.23
3276.00,99.23
3275.00,99.24
3274.00,99.24
3273.00,99.24
3272.00,99.24
3271.00,99.24
3270.00,99.25
3269.00,99.25
3268.00,99.25
3267.00,99.25
3266.00,99.26
3265.00,99.26
3264.00,99.26
3263.00,99.26
3262.00,99.26
3261.00,99.27
3260.00,99.27
3259.00,99.27
3258.00,99.27
3257.00,99.27
3256.00,99.27
3255.00,99.27
3254.00,99.27
3253.00,99.28
3252.00,99.28
3251.00,99.28
3250.00,99.28
3249.00,99.29
3248.00,99.29
3247.00,99.29
3246.00,99.29
3245.00,99.29
3244.00,99.29
3243.00,99.28
3242.00,99.28
3241.00,99.29
3240.00,99.29
3239.00,99.30
3238.00,99.30
3237.00,99.30
3236.00,99.30
3235.00,99.30
3234.00,99.30
3233.00,99.30
3232.00,99.30
3231.00,99.30
3230.00,99.29
3229.00,99.29
3228.00,99.29
3227.00,99.29
3226.00,99.29
3225.00,99.29
3224.00,99.29
3223.00,99.30
3222.00,99.30
3221.00,99.30
3220.00,99.29
3219.00,99.29
3218.00,99.29
3217.00,99.28
3216.00,99.28
3215.00,99.28
3214.00,99.29
3213.00,99.29
3212.00,99.29
3211.00,99.29
3210.00,99.29
3209.00,99.28
3208.00,99.28
3207.00,99.29
3206.00,99.29
3205.00,99.29
3204.00,99.29
3203.00,99.29
3202.00,99.29
3201.00,99.30
3200.00,99.30
3199.00,99.31
3198.00,99.31
3197.00,99.31
3196.00,99.31
3195.00,99.31
3194.00,99.31
3193.00,99.32
3192.00,99.32
3191.00,99.33
3190.00,99.33
3189.00,99.33
3188.00,99.33
3187.00,99.33
3186.00,99.33
3185.00,99.33
3184.00,99.34
3183.00,99.34
3182.00,99.35
3181.00,99.35
3180.00,99.36
3179.00,99.36
3178.00,99.37
3177.00,99.37
3176.00,99.38
3175.00,99.38
3174.00,99.38
3173.00,99.39
3172.00,99.39
3171.00,99.39
3170.00,99.39
3169.00,99.40
3168.00,99.40
3167.00,99.41
3166.00,99.41
3165.00,99.42
3164.00,99.42
3163.00,99.42
3162.00,99.42
3161.00,99.43
3160.00,99.43
3159.00,99.43
3158.00,99.43
3157.00,99.43
3156.00,99.44
3155.00,99.44
3154.00,99.44
3153.00,99.45
3152.00,99.45
3151.00,99.45
3150.00,99.45
3149.00,99.45
3148.00,99.45
3147.00,99.46
3146.00,99.46
3145.00,99.46
3144.00,99.46
3143.00,99.47
3142.00,99.47
3141.00,99.47
3140.00,99.46
3139.00,99.46
3138.00,99.46
3137.00,99.47
3136.00,99.47
3135.00,99.47
3134.00,99.48
3133.00,99.48
3132.00,99.48
3131.00,99.48
3130.00,99.48
3129.00,99.49
3128.00,99.49
3127.00,99.49
3126.00,99.49
3125.00,99.49
3124.00,99.48
3123.00,99.48
3122.00,99.47
3121.00,99.47
3120.00,99.47
3119.00,99.47
3118.00,99.47
3117.00,99.47
3116.00,99.47
3115.00,99.47
3114.00,99.47
3113.00,99.46
3112.00,99.46
3111.00,99.46
3110.00,99.45
3109.00,99.45
3108.00,99.45
3107.00,99.44
3106.00,99.44
3105.00,99.44
3104.00,99.43
3103.00,99.43
3102.00,99.42
3101.00,99.41
3100.00,99.40
3099.00,99.39
3098.00,99.38
3097.00,99.37
3096.00,99.36
3095.00,99.36
3094.00,99.35
3093.00,99.34
3092.00,99.34
3091.00,99.33
3090.00,99.32
3089.00,99.31
3088.00,99.31
3087.00,99.30
3086.00,99.30
3085.00,99.30
3084.00,99.29
3083.00,99.29
3082.00,99.28
3081.00,99.28
3080.00,99.27
3079.00,99.27
3078.00,99.27
3077.00,99.27
3076.00,99.26
3075.00,99.26
3074.00,99.25
3073.00,99.24
3072.00,99.24
3071.00,99.24
3070.00,99.24
3069.00,99.23
3068.00,99.23
3067.00,99.22
3066.00,99.22
3065.00,99.21
3064.00,99.20
3063.00,99.20
3062.00,99.20
3061.00,99.19
3060.00,99.19
3059.00,99.19
3058.00,99.18
3057.00,99.17
3056.00,99.16
3055.00,99.15
3054.00,99.15
3053.00,99.14
3052.00,99.13
3051.00,99.13
3050.00,99.12
3049.00,99.12
3048.00,99.11
3047.00,99.10
3046.00,99.09
3045.00,99.07
3044.00,99.06
3043.00,99.05
3042.00,99.04
3041.00,99.03
3040.00,99.02
3039.00,99.01
3038.00,99.00
3037.00,98.99
3036.00,98.98
3035.00,98.97
3034.00,98.96
3033.00,98.95
3032.00,98.94
3031.00,98.93
3030.00,98.92
3029.00,98.91
3028.00,98.89
3027.00,98.88
3026.00,98.87
3025.00,98.87
3024.00,98.86
3023.00,98.86
3022.00,98.85
3021.00,98.84
3020.00,98.83
3019.00,98.82
3018.00,98.81
3017.00,98.80
3016.00,98.79
3015.00,98.77
3014.00,98.76
3013.00,98.75
3012.00,98.74
3011.00,98.72
3010.00,98.71
3009.00,98.69
3008.00,98.67
3007.00,98.65
3006.00,98.63
3005.00,98.61
3004.00,98.59
3003.00,98.57
3002.00,98.55
3001.00,98.53
3000.00,98.51
2999.00,98.48
2998.00,98.46
2997.00,98.43
2996.00,98.40
2995.00,98.37
2994.00,98.33
2993.00,98.29
2992.00,98.25
2991.00,98.20
2990.00,98.16
2989.00,98.11
2988.00,98.06
2987.00,98.00
2986.00,97.93
2985.00,97.86
2984.00,97.79
2983.00,97.71
2982.00,97.62
2981.00,97.52
2980.00,97.42
2979.00,97.31
2978.00,97.18
2977.00,97.04
2976.00,96.89
2975.00,96.73
2974.00,96.55
2973.00,96.35
2972.00,96.13
2971.00,95.90
2970.00,95.66
2969.00,95.40
2968.00,95.13
2967.00,94.86
2966.00,94.57
2965.00,94.29
2964.00,94.00
2963.00,93.72
2962.00,93.45
2961.00,93.19
2960.00,92.95
2959.00,92.72
2958.00,92.50
2957.00,92.31
2956.00,92.13
2955.00,91.98
2954.00,91.83
2953.00,91.70
2952.00,91.55
2951.00,91.38
2950.00,91.16
2949.00,90.88
2948.00,90.51
2947.00,90.06
2946.00,89.51
2945.00,88.86
2944.00,88.11
2943.00,87.27
2942.00,86.33
2941.00,85.30
2940.00,84.17
2939.00,82.95
2938.00,81.64
2937.00,80.24
2936.00,78.76
2935.00,77.18
2934.00,75.51
2933.00,73.74
2932.00,71.88
2931.00,69.91
2930.00,67.83
2929.00,65.63
2928.00,63.30
2927.00,60.82
2926.00,58.18
2925.00,55.37
2924.00,52.38
2923.00,49.24
2922.00,46.01
2921.00,42.78
2920.00,39.70
2919.00,36.92
2918.00,34.65
2917.00,33.11
2916.00,32.46
2915.00,32.77
2914.00,34.00
2913.00,36.00
2912.00,38.56
2911.00,41.42
2910.00,44.36
2909.00,47.20
2908.00,49.83
2907.00,52.21
2906.00,54.33
2905.00,56.19
2904.00,57.84
2903.00,59.30
2902.00,60.62
2901.00,61.82
2900.00,62.94
2899.00,64.00
2898.00,65.02
2897.00,66.01
2896.00,67.00
2895.00,67.99
2894.00,68.99
2893.00,70.01
2892.00,71.03
2891.00,72.08
2890.00,73.13
2889.00,74.19
2888.00,75.24
2887.00,76.29
2886.00,77.32
2885.00,78.32
2884.00,79.29
2883.00,80.23
2882.00,81.12
2881.00,81.97
2880.00,82.75
2879.00,83.47
2878.00,84.09
2877.00,84.63
2876.00,85.07
2875.00,85.40
2874.00,85.65
2873.00,85.83
2872.00,85.93
2871.00,85.98
2870.00,85.96
2869.00,85.87
2868.00,85.66
2867.00,85.32
2866.00,84.81
2865.00,84.12
2864.00,83.21
2863.00,82.08
2862.00,80.70
2861.00,79.04
2860.00,77.10
2859.00,74.82
2858.00,72.20
2857.00,69.18
2856.00,65.70
2855.00,61.72
2854.00,57.18
2853.00,52.14
2852.00,46.88
2851.00,41.94
2850.00,38.09
2849.00,36.10
2848.00,36.42
2847.00,38.99
2846.00,43.27
2845.00,48.54
2844.00,54.08
2843.00,59.40
2842.00,64.24
2841.00,68.48
2840.00,72.12
2839.00,75.21
2838.00,77.82
2837.00,80.02
2836.00,81.90
2835.00,83.50
2834.00,84.87
2833.00,86.06
2832.00,87.09
2831.00,87.99
2830.00,88.79
2829.00,89.50
2828.00,90.13
2827.00,90.70
2826.00,91.22
2825.00,91.69
2824.00,92.12
2823.00,92.51
2822.00,92.86
2821.00,93.19
2820.00,93.49
2819.00,93.77
2818.00,94.03
2817.00,94.27
2816.00,94.49
2815.00,94.70
2814.00,94.89
2813.00,95.08
2812.00,95.25
2811.00,95.40
2810.00,95.55
2809.00,95.69
2808.00,95.83
2807.00,95.96
2806.00,96.08
2805.00,96.19
2804.00,96.30
2803.00,96.41
2802.00,96.51
2801.00,96.60
2800.00,96.69
2799.00,96.78
2798.00,96.87
2797.00,96.95
2796.00,97.03
2795.00,97.11
2794.00,97.19
2793.00,97.26
2792.00,97.33
2791.00,97.41
2790.00,97.48
2789.00,97.55
2788.00,97.61
2787.00,97.68
2786.00,97.74
2785.00,97.79
2784.00,97.84
2783.00,97.89
2782.00,97.94
2781.00,97.99
2780.00,98.03
2779.00,98.08
2778.00,98.12
2777.00,98.15
2776.00,98.19
2775.00,98.22
2774.00,98.26
2773.00,98.29
2772.00,98.31
2771.00,98.34
2770.00,98.36
2769.00,98.38
2768.00,98.41
2767.00,98.43
2766.00,98.45
2765.00,98.46
2764.00,98.48
2763.00,98.49
2762.00,98.51
2761.00,98.52
2760.00,98.54
2759.00,98.55
2758.00,98.57
2757.00,98.58
2756.00,98.59
2755.00,98.60
2754.00,98.61
2753.00,98.61
2752.00,98.62
2751.00,98.62
2750.00,98.63
2749.00,98.63
2748.00,98.63
2747.00,98.63
2746.00,98.63
2745.00,98.63
2744.00,98.63
2743.00,98.63
2742.00,98.63
2741.00,98.63
2740.00,98.63
2739.00,98.63
2738.00,98.63
2737.00,98.64
2736.00,98.64
2735.00,98.65
2734.00,98.65
2733.00,98.66
2732.00,98.67
2731.00,98.67
2730.00,98.68
2729.00,98.69
2728.00,98.70
2727.00,98.71
2726.00,98.73
2725.00,98.74
2724.00,98.75
2723.00,98.76
2722.00,98.77
2721.00,98.78
2720.00,98.79
2719.00,98.81
2718.00,98.81
2717.00,98.82
2716.00,98.83
2715.00,98.84
2714.00,98.84
2713.00,98.85
2712.00,98.85
2711.00,98.86
2710.00,98.87
2709.00,98.88
2708.00,98.89
2707.00,98.90
2706.00,98.91
2705.00,98.91
2704.00,98.92
2703.00,98.93
2702.00,98.93
2701.00,98.93
2700.00,98.94
2699.00,98.94
2698.00,98.94
2697.00,98.94
2696.00,98.94
2695.00,98.94
2694.00,98.94
2693.00,98.93
2692.00,98.93
2691.00,98.92
2690.00,98.92
2689.00,98.91
2688.00,98.91
2687.00,98.91
2686.00,98.90
2685.00,98.90
2684.00,98.89
2683.00,98.89
2682.00,98.88
2681.00,98.88
2680.00,98.87
2679.00,98.86
2678.00,98.85
2677.00,98.84
2676.00,98.83
2675.00,98.83
2674.00,98.82
2673.00,98.82
2672.00,98.81
2671.00,98.81
2670.00,98.80
2669.00,98.79
2668.00,98.78
2667.00,98.78
2666.00,98.77
2665.00,98.77
2664.00,98.76
2663.00,98.75
2662.00,98.74
2661.00,98.74
2660.00,98.73
2659.00,98.72
2658.00,98.72
2657.00,98.72
2656.00,98.72
2655.00,98.72
2654.00,98.73
2653.00,98.73
2652.00,98.73
2651.00,98.73
2650.00,98.73
2649.00,98.73
2648.00,98.73
2647.00,98.73
2646.00,98.73
2645.00,98.73
2644.00,98.72
2643.00,98.72
2642.00,98.71
2641.00,98.71
2640.00,98.70
2639.00,98.70
2638.00,98.69
2637.00,98.69
2636.00,98.70
2635.00,98.70
2634.00,98.71
2633.00,98.72
2632.00,98.73
2631.00,98.74
2630.00,98.75
2629.00,98.77
2628.00,98.78
2627.00,98.80
2626.00,98.82
2625.00,98.84
2624.00,98.85
2623.00,98.87
2622.00,98.88
2621.00,98.90
2620.00,98.91
2619.00,98.92
2618.00,98.94
2617.00,98.95
2616.00,98.97
2615.00,98.98
2614.00,99.00
2613.00,99.01
2612.00,99.02
2611.00,99.04
2610.00,99.05
2609.00,99.06
2608.00,99.07
2607.00,99.08
2606.00,99.08
2605.00,99.09
2604.00,99.10
2603.00,99.10
2602.00,99.11
2601.00,99.12
2600.00,99.13
2599.00,99.14
2598.00,99.15
2597.00,99.16
2596.00,99.17
2595.00,99.18
2594.00,99.19
2593.00,99.20
2592.00,99.21
2591.00,99.21
2590.00,99.22
2589.00,99.23
2588.00,99.24
2587.00,99.25
2586.00,99.26
2585.00,99.27
2584.00,99.28
2583.00,99.29
2582.00,99.30
2581.00,99.31
2580.00,99.31
2579.00,99.32
2578.00,99.33
2577.00,99.33
2576.00,99.34
2575.00,99.35
2574.00,99.36
2573.00,99.37
2572.00,99.37
2571.00,99.37
2570.00,99.38
2569.00,99.38
2568.00,99.39
2567.00,99.40
2566.00,99.41
2565.00,99.41
2564.00,99.42
2563.00,99.42
2562.00,99.43
2561.00,99.43
2560.00,99.43
2559.00,99.43
2558.00,99.44
2557.00,99.44
2556.00,99.44
2555.00,99.44
2554.00,99.45
2553.00,99.45
2552.00,99.45
2551.00,99.46
2550.00,99.46
2549.00,99.46
2548.00,99.47
2547.00,99.48
2546.00,99.49
2545.00,99.50
2544.00,99.50
2543.00,99.51
2542.00,99.51
2541.00,99.52
2540.00,99.52
2539.00,99.53
2538.00,99.53
2537.00,99.53
2536.00,99.52
2535.00,99.52
2534.00,99.52
2533.00,99.52
2532.00,99.53
2531.00,99.53
2530.00,99.53
2529.00,99.53
2528.00,99.53
2527.00,99.53
2526.00,99.54
2525.00,99.54
2524.00,99.55
2523.00,99.56
2522.00,99.57
2521.00,99.57
2520.00,99.58
2519.00,99.58
2518.00,99.59
2517.00,99.59
2516.00,99.59
2515.00,99.59
2514.00,99.60
2513.00,99.60
2512.00,99.61
2511.00,99.61
2510.00,99.62
2509.00,99.62
2508.00,99.62
2507.00,99.63
2506.00,99.63
2505.00,99.63
2504.00,99.63
2503.00,99.64
2502.00,99.64
2501.00,99.64
2500.00,99.63
2499.00,99.63
2498.00,99.64
2497.00,99.64
2496.00,99.65
2495.00,99.65
2494.00,99.65
2493.00,99.65
2492.00,99.65
2491.00,99.65
2490.00,99.65
2489.00,99.65
2488.00,99.66
2487.00,99.66
2486.00,99.66
2485.00,99.66
2484.00,99.66
2483.00,99.66
2482.00,99.66
2481.00,99.66
2480.00,99.66
2479.00,99.67
2478.00,99.67
2477.00,99.67
2476.00,99.67
2475.00,99.67
2474.00,99.67
2473.00,99.67
2472.00,99.68
2471.00,99.69
2470.00,99.69
2469.00,99.70
2468.00,99.70
2467.00,99.70
2466.00,99.70
2465.00,99.70
2464.00,99.70
2463.00,99.70
2462.00,99.71
2461.00,99.70
2460.00,99.70
2459.00,99.70
2458.00,99.69
2457.00,99.69
2456.00,99.69
2455.00,99.69
2454.00,99.70
2453.00,99.70
2452.00,99.70
2451.00,99.70
2450.00,99.70
2449.00,99.70
2448.00,99.70
2447.00,99.70
2446.00,99.70
2445.00,99.70
2444.00,99.70
2443.00,99.71
2442.00,99.71
2441.00,99.71
2440.00,99.72
2439.00,99.72
2438.00,99.72
2437.00,99.72
2436.00,99.72
2435.00,99.71
2434.00,99.71
2433.00,99.71
2432.00,99.72
2431.00,99.72
2430.00,99.72
2429.00,99.72
2428.00,99.72
2427.00,99.72
2426.00,99.72
2425.00,99.71
2424.00,99.71
2423.00,99.70
2422.00,99.70
2421.00,99.70
2420.00,99.70
2419.00,99.70
2418.00,99.70
2417.00,99.71
2416.00,99.71
2415.00,99.71
2414.00,99.71
2413.00,99.71
2412.00,99.71
2411.00,99.71
2410.00,99.72
2409.00,99.72
2408.00,99.72
2407.00,99.73
2406.00,99.74
2405.00,99.74
2404.00,99.75
2403.00,99.75
2402.00,99.75
2401.00,99.75
2400.00,99.76
2399.00,99.76
2398.00,99.77
2397.00,99.77
2396.00,99.76
2395.00,99.76
2394.00,99.77
2393.00,99.77
2392.00,99.77
2391.00,99.77
2390.00,99.77
2389.00,99.77
2388.00,99.77
2387.00,99.77
2386.00,99.77
2385.00,99.77
2384.00,99.77
2383.00,99.77
2382.00,99.77
2381.00,99.77
2380.00,99.77
2379.00,99.77
2378.00,99.77
2377.00,99.77
2376.00,99.77
2375.00,99.78
2374.00,99.78
2373.00,99.78
2372.00,99.76
2371.00,99.75
2370.00,99.74
2369.00,99.74
2368.00,99.75
2367.00,99.75
2366.00,99.75
2365.00,99.74
2364.00,99.73
2363.00,99.72
2362.00,99.71
2361.00,99.69
2360.00,99.69
2359.00,99.69
2358.00,99.70
2357.00,99.70
2356.00,99.69
2355.00,99.68
2354.00,99.67
2353.00,99.65
2352.00,99.65
2351.00,99.65
2350.00,99.65
2349.00,99.64
2348.00,99.63
2347.00,99.62
2346.00,99.62
2345.00,99.61
2344.00,99.59
2343.00,99.58
2342.00,99.57
2341.00,99.57
2340.00,99.57
2339.00,99.57
2338.00,99.56
2337.00,99.55
2336.00,99.53
2335.00,99.51
2334.00,99.50
2333.00,99.50
2332.00,99.51
2331.00,99.52
2330.00,99.53
2329.00,99.53
2328.00,99.52
2327.00,99.48
2326.00,99.41
2325.00,99.35
2324.00,99.31
2323.00,99.30
2322.00,99.31
2321.00,99.34
2320.00,99.37
2319.00,99.39
2318.00,99.41
2317.00,99.42
2316.00,99.43
2315.00,99.44
2314.00,99.45
2313.00,99.46
2312.00,99.47
2311.00,99.48
2310.00,99.48
2309.00,99.48
2308.00,99.49
2307.00,99.49
2306.00,99.50
2305.00,99.50
2304.00,99.50
2303.00,99.50
2302.00,99.50
2301.00,99.50
2300.00,99.51
2299.00,99.52
2298.00,99.53
2297.00,99.52
2296.00,99.52
2295.00,99.51
2294.00,99.50
2293.00,99.49
2292.00,99.48
2291.00,99.48
2290.00,99.47
2289.00,99.46
2288.00,99.45
2287.00,99.45
2286.00,99.45
2285.00,99.45
2284.00,99.45
2283.00,99.45
2282.00,99.46
2281.00,99.47
2280.00,99.49
2279.00,99.50
2278.00,99.51
2277.00,99.51
2276.00,99.51
2275.00,99.52
2274.00,99.53
2273.00,99.53
2272.00,99.54
2271.00,99.56
2270.00,99.57
2269.00,99.59
2268.00,99.59
2267.00,99.60
2266.00,99.61
2265.00,99.62
2264.00,99.63
2263.00,99.63
2262.00,99.63
2261.00,99.62
2260.00,99.61
2259.00,99.61
2258.00,99.60
2257.00,99.60
2256.00,99.60
2255.00,99.62
2254.00,99.63
2253.00,99.64
2252.00,99.64
2251.00,99.64
2250.00,99.64
2249.00,99.63
2248.00,99.63
2247.00,99.62
2246.00,99.62
2245.00,99.61
2244.00,99.60
2243.00,99.60
2242.00,99.60
2241.00,99.60
2240.00,99.61
2239.00,99.62
2238.00,99.63
2237.00,99.63
2236.00,99.63
2235.00,99.64
2234.00,99.64
2233.00,99.63
2232.00,99.63
2231.00,99.63
2230.00,99.63
2229.00,99.62
2228.00,99.62
2227.00,99.62
2226.00,99.63
2225.00,99.64
2224.00,99.65
2223.00,99.65
2222.00,99.65
2221.00,99.64
2220.00,99.63
2219.00,99.63
2218.00,99.64
2217.00,99.64
2216.00,99.63
2215.00,99.63
2214.00,99.63
2213.00,99.63
2212.00,99.63
2211.00,99.63
2210.00,99.63
2209.00,99.62
2208.00,99.62
2207.00,99.62
2206.00,99.63
2205.00,99.63
2204.00,99.63
2203.00,99.63
2202.00,99.62
2201.00,99.61
2200.00,99.60
2199.00,99.60
2198.00,99.60
2197.00,99.59
2196.00,99.59
2195.00,99.58
2194.00,99.58
2193.00,99.57
2192.00,99.57
2191.00,99.56
2190.00,99.55
2189.00,99.54
2188.00,99.52
2187.00,99.51
2186.00,99.50
2185.00,99.49
2184.00,99.49
2183.00,99.51
2182.00,99.53
2181.00,99.56
2180.00,99.58
2179.00,99.58
2178.00,99.58
2177.00,99.58
2176.00,99.59
2175.00,99.62
2174.00,99.63
2173.00,99.63
2172.00,99.61
2171.00,99.59
2170.00,99.55
2169.00,99.50
2168.00,99.45
2167.00,99.41
2166.00,99.39
2165.00,99.38
2164.00,99.36
2163.00,99.34
2162.00,99.31
2161.00,99.32
2160.00,99.42
2159.00,99.60
2158.00,99.79
2157.00,99.93
2156.00,99.99
2155.00,99.99
2154.00,99.97
2153.00,99.94
2152.00,99.90
2151.00,99.86
2150.00,99.84
2149.00,99.83
2148.00,99.83
2147.00,99.84
2146.00,99.86
2145.00,99.86
2144.00,99.85
2143.00,99.85
2142.00,99.86
2141.00,99.86
2140.00,99.87
2139.00,99.87
2138.00,99.88
2137.00,99.88
2136.00,99.90
2135.00,99.94
2134.00,99.97
2133.00,100.00
2132.00,100.00
2131.00,99.99
2130.00,99.97
2129.00,99.94
2128.00,99.91
2127.00,99.89
2126.00,99.88
2125.00,99.86
2124.00,99.85
2123.00,99.84
2122.00,99.83
2121.00,99.82
2120.00,99.80
2119.00,99.79
2118.00,99.77
2117.00,99.75
2116.00,99.73
2115.00,99.72
2114.00,99.71
2113.00,99.70
2112.00,99.70
2111.00,99.69
2110.00,99.69
2109.00,99.69
2108.00,99.69
2107.00,99.69
2106.00,99.69
2105.00,99.69
2104.00,99.70
2103.00,99.70
2102.00,99.70
2101.00,99.70
2100.00,99.70
2099.00,99.70
2098.00,99.71
2097.00,99.72
2096.00,99.74
2095.00,99.77
2094.00,99.79
2093.00,99.79
2092.00,99.77
2091.00,99.75
2090.00,99.73
2089.00,99.72
2088.00,99.70
2087.00,99.70
2086.00,99.69
2085.00,99.68
2084.00,99.67
2083.00,99.67
2082.00,99.66
2081.00,99.64
2080.00,99.63
2079.00,99.62
2078.00,99.62
2077.00,99.62
2076.00,99.62
2075.00,99.63
2074.00,99.63
2073.00,99.63
2072.00,99.64
2071.00,99.64
2070.00,99.64
2069.00,99.64
2068.00,99.63
2067.00,99.62
2066.00,99.61
2065.00,99.62
2064.00,99.62
2063.00,99.62
2062.00,99.62
2061.00,99.62
2060.00,99.61
2059.00,99.61
2058.00,99.60
2057.00,99.59
2056.00,99.58
2055.00,99.59
2054.00,99.58
2053.00,99.55
2052.00,99.49
2051.00,99.43
2050.00,99.40
2049.00,99.40
2048.00,99.42
2047.00,99.46
2046.00,99.48
2045.00,99.50
2044.00,99.50
2043.00,99.49
2042.00,99.47
2041.00,99.44
2040.00,99.41
2039.00,99.39
2038.00,99.38
2037.00,99.37
2036.00,99.38
2035.00,99.41
2034.00,99.44
2033.00,99.46
2032.00,99.48
2031.00,99.49
2030.00,99.50
2029.00,99.50
2028.00,99.51
2027.00,99.51
2026.00,99.50
2025.00,99.47
2024.00,99.45
2023.00,99.44
2022.00,99.44
2021.00,99.42
2020.00,99.41
2019.00,99.41
2018.00,99.43
2017.00,99.45
2016.00,99.47
2015.00,99.48
2014.00,99.48
2013.00,99.49
2012.00,99.50
2011.00,99.52
2010.00,99.54
2009.00,99.56
2008.00,99.59
2007.00,99.63
2006.00,99.67
2005.00,99.69
2004.00,99.70
2003.00,99.71
2002.00,99.71
2001.00,99.71
2000.00,99.69
1999.00,99.68
1998.00,99.66
1997.00,99.64
1996.00,99.62
1995.00,99.60
1994.00,99.57
1993.00,99.55
1992.00,99.54
1991.00,99.54
1990.00,99.55
1989.00,99.56
1988.00,99.55
1987.00,99.54
1986.00,99.53
1985.00,99.51
1984.00,99.49
1983.00,99.45
1982.00,99.40
1981.00,99.33
1980.00,99.30
1979.00,99.33
1978.00,99.41
1977.00,99.52
1976.00,99.59
1975.00,99.64
1974.00,99.66
1973.00,99.68
1972.00,99.69
1971.00,99.69
1970.00,99.69
1969.00,99.68
1968.00,99.67
1967.00,99.67
1966.00,99.68
1965.00,99.67
1964.00,99.68
1963.00,99.70
1962.00,99.72
1961.00,99.75
1960.00,99.77
1959.00,99.79
1958.00,99.79
1957.00,99.77
1956.00,99.75
1955.00,99.73
1954.00,99.72
1953.00,99.72
1952.00,99.71
1951.00,99.71
1950.00,99.73
1949.00,99.74
1948.00,99.74
1947.00,99.74
1946.00,99.74
1945.00,99.74
1944.00,99.75
1943.00,99.76
1942.00,99.76
1941.00,99.76
1940.00,99.75
1939.00,99.75
1938.00,99.75
1937.00,99.75
1936.00,99.76
1935.00,99.76
1934.00,99.76
1933.00,99.76
1932.00,99.75
1931.00,99.76
1930.00,99.76
1929.00,99.76
1928.00,99.76
1927.00,99.76
1926.00,99.76
1925.00,99.75
1924.00,99.74
1923.00,99.74
1922.00,99.74
1921.00,99.74
1920.00,99.74
1919.00,99.74
1918.00,99.74
1917.00,99.72
1916.00,99.71
1915.00,99.70
1914.00,99.69
1913.00,99.69
1912.00,99.69
1911.00,99.70
1910.00,99.70
1909.00,99.70
1908.00,99.69
1907.00,99.68
1906.00,99.67
1905.00,99.67
1904.00,99.67
1903.00,99.67
1902.00,99.67
1901.00,99.67
1900.00,99.66
1899.00,99.66
1898.00,99.66
1897.00,99.65
1896.00,99.65
1895.00,99.66
1894.00,99.66
1893.00,99.67
1892.00,99.68
1891.00,99.70
1890.00,99.71
1889.00,99.71
1888.00,99.71
1887.00,99.72
1886.00,99.73
1885.00,99.74
1884.00,99.75
1883.00,99.76
1882.00,99.78
1881.00,99.78
1880.00,99.78
1879.00,99.78
1878.00,99.78
1877.00,99.77
1876.00,99.77
1875.00,99.77
1874.00,99.78
1873.00,99.78
1872.00,99.78
1871.00,99.78
1870.00,99.78
1869.00,99.78
1868.00,99.78
1867.00,99.78
1866.00,99.79
1865.00,99.79
1864.00,99.79
1863.00,99.79
1862.00,99.79
1861.00,99.79
1860.00,99.80
1859.00,99.81
1858.00,99.82
1857.00,99.82
1856.00,99.81
1855.00,99.81
1854.00,99.81
1853.00,99.80
1852.00,99.80
1851.00,99.80
1850.00,99.80
1849.00,99.79
1848.00,99.79
1847.00,99.78
1846.00,99.78
1845.00,99.79
1844.00,99.79
1843.00,99.79
1842.00,99.80
1841.00,99.80
1840.00,99.80
1839.00,99.80
1838.00,99.80
1837.00,99.79
1836.00,99.79
1835.00,99.78
1834.00,99.78
1833.00,99.78
1832.00,99.78
1831.00,99.78
1830.00,99.78
1829.00,99.77
1828.00,99.76
1827.00,99.75
1826.00,99.75
1825.00,99.74
1824.00,99.74
1823.00,99.73
1822.00,99.73
1821.00,99.73
1820.00,99.74
1819.00,99.74
1818.00,99.76
1817.00,99.77
1816.00,99.77
1815.00,99.77
1814.00,99.77
1813.00,99.76
1812.00,99.76
1811.00,99.75
1810.00,99.75
1809.00,99.74
1808.00,99.73
1807.00,99.72
1806.00,99.72
1805.00,99.71
1804.00,99.70
1803.00,99.70
1802.00,99.69
1801.00,99.69
1800.00,99.68
1799.00,99.68
1798.00,99.68
1797.00,99.68
1796.00,99.67
1795.00,99.67
1794.00,99.66
1793.00,99.66
1792.00,99.65
1791.00,99.65
1790.00,99.65
1789.00,99.65
1788.00,99.64
1787.00,99.64
1786.00,99.63
1785.00,99.62
1784.00,99.61
1783.00,99.61
1782.00,99.61
1781.00,99.61
1780.00,99.60
1779.00,99.60
1778.00,99.60
1777.00,99.60
1776.00,99.60
1775.00,99.60
1774.00,99.60
1773.00,99.59
1772.00,99.57
1771.00,99.56
1770.00,99.55
1769.00,99.54
1768.00,99.53
1767.00,99.53
1766.00,99.53
1765.00,99.52
1764.00,99.52
1763.00,99.51
1762.00,99.50
1761.00,99.48
1760.00,99.47
1759.00,99.46
1758.00,99.45
1757.00,99.43
1756.00,99.40
1755.00,99.38
1754.00,99.36
1753.00,99.33
1752.00,99.30
1751.00,99.28
1750.00,99.25
1749.00,99.22
1748.00,99.19
1747.00,99.15
1746.00,99.12
1745.00,99.08
1744.00,99.04
1743.00,99.01
1742.00,98.97
1741.00,98.94
1740.00,98.90
1739.00,98.87
1738.00,98.85
1737.00,98.83
1736.00,98.81
1735.00,98.78
1734.00,98.76
1733.00,98.73
1732.00,98.72
1731.00,98.71
1730.00,98.69
1729.00,98.66
1728.00,98.62
1727.00,98.57
1726.00,98.52
1725.00,98.47
1724.00,98.42
1723.00,98.39
1722.00,98.37
1721.00,98.36
1720.00,98.35
1719.00,98.35
1718.00,98.36
1717.00,98.36
1716.00,98.37
1715.00,98.39
1714.00,98.41
1713.00,98.43
1712.00,98.45
1711.00,98.47
1710.00,98.49
1709.00,98.52
1708.00,98.54
1707.00,98.56
1706.00,98.58
1705.00,98.59
1704.00,98.60
1703.00,98.61
1702.00,98.62
1701.00,98.64
1700.00,98.64
1699.00,98.65
1698.00,98.66
1697.00,98.66
1696.00,98.66
1695.00,98.66
1694.00,98.66
1693.00,98.66
1692.00,98.65
1691.00,98.64
1690.00,98.62
1689.00,98.60
1688.00,98.57
1687.00,98.55
1686.00,98.53
1685.00,98.49
1684.00,98.42
1683.00,98.37
1682.00,98.34
1681.00,98.31
1680.00,98.27
1679.00,98.23
1678.00,98.20
1677.00,98.16
1676.00,98.12
1675.00,98.07
1674.00,98.04
1673.00,98.01
1672.00,97.98
1671.00,97.95
1670.00,97.92
1669.00,97.88
1668.00,97.86
1667.00,97.85
1666.00,97.85
1665.00,97.84
1664.00,97.84
1663.00,97.84
1662.00,97.85
1661.00,97.87
1660.00,97.89
1659.00,97.91
1658.00,97.94
1657.00,97.96
1656.00,97.97
1655.00,98.01
1654.00,98.05
1653.00,98.09
1652.00,98.13
1651.00,98.18
1650.00,98.23
1649.00,98.27
1648.00,98.31
1647.00,98.34
1646.00,98.37
1645.00,98.39
1644.00,98.42
1643.00,98.45
1642.00,98.47
1641.00,98.50
1640.00,98.51
1639.00,98.53
1638.00,98.55
1637.00,98.56
1636.00,98.57
1635.00,98.58
1634.00,98.59
1633.00,98.60
1632.00,98.60
1631.00,98.61
1630.00,98.62
1629.00,98.63
1628.00,98.64
1627.00,98.64
1626.00,98.65
1625.00,98.65
1624.00,98.65
1623.00,98.65
1622.00,98.65
1621.00,98.65
1620.00,98.64
1619.00,98.65
1618.00,98.66
1617.00,98.67
1616.00,98.67
1615.00,98.68
1614.00,98.68
1613.00,98.69
1612.00,98.70
1611.00,98.72
1610.00,98.73
1609.00,98.74
1608.00,98.75
1607.00,98.76
1606.00,98.77
1605.00,98.78
1604.00,98.78
1603.00,98.79
1602.00,98.80
1601.00,98.81
1600.00,98.81
1599.00,98.82
1598.00,98.83
1597.00,98.83
1596.00,98.83
1595.00,98.83
1594.00,98.83
1593.00,98.83
1592.00,98.82
1591.00,98.82
1590.00,98.82
1589.00,98.81
1588.00,98.79
1587.00,98.77
1586.00,98.76
1585.00,98.74
1584.00,98.71
1583.00,98.69
1582.00,98.67
1581.00,98.65
1580.00,98.63
1579.00,98.62
1578.00,98.62
1577.00,98.63
1576.00,98.64
1575.00,98.66
1574.00,98.69
1573.00,98.71
1572.00,98.73
1571.00,98.76
1570.00,98.79
1569.00,98.81
1568.00,98.82
1567.00,98.84
1566.00,98.85
1565.00,98.86
1564.00,98.86
1563.00,98.86
1562.00,98.86
1561.00,98.86
1560.00,98.86
1559.00,98.85
1558.00,98.85
1557.00,98.84
1556.00,98.83
1555.00,98.82
1554.00,98.82
1553.00,98.81
1552.00,98.79
1551.00,98.78
1550.00,98.77
1549.00,98.74
1548.00,98.71
1547.00,98.68
1546.00,98.65
1545.00,98.62
1544.00,98.58
1543.00,98.56
1542.00,98.56
1541.00,98.56
1540.00,98.57
1539.00,98.61
1538.00,98.65
1537.00,98.68
1536.00,98.70
1535.00,98.74
1534.00,98.78
1533.00,98.80
1532.00,98.82
1531.00,98.84
1530.00,98.85
1529.00,98.86
1528.00,98.86
1527.00,98.87
1526.00,98.88
1525.00,98.89
1524.00,98.88
1523.00,98.88
1522.00,98.89
1521.00,98.87
1520.00,98.85
1519.00,98.86
1518.00,98.87
1517.00,98.85
1516.00,98.83
1515.00,98.83
1514.00,98.84
1513.00,98.83
1512.00,98.81
1511.00,98.81
1510.00,98.81
1509.00,98.79
1508.00,98.76
1507.00,98.75
1506.00,98.75
1505.00,98.73
1504.00,98.71
1503.00,98.70
1502.00,98.70
1501.00,98.67
1500.00,98.63
1499.00,98.61
1498.00,98.59
1497.00,98.54
1496.00,98.48
1495.00,98.45
1494.00,98.43
1493.00,98.38
1492.00,98.31
1491.00,98.26
1490.00,98.20
1489.00,98.10
1488.00,97.98
1487.00,97.89
1486.00,97.79
1485.00,97.65
1484.00,97.48
1483.00,97.28
1482.00,97.01
1481.00,96.62
1480.00,96.11
1479.00,95.42
1478.00,94.19
1477.00,91.98
1476.00,88.62
1475.00,84.39
1474.00,80.06
1473.00,77.02
1472.00,76.38
1471.00,77.35
1470.00,78.43
1469.00,79.02
1468.00,79.14
1467.00,78.79
1466.00,77.73
1465.00,76.02
1464.00,74.53
1463.00,74.28
1462.00,75.47
1461.00,77.72
1460.00,80.45
1459.00,83.10
1458.00,85.27
1457.00,86.87
1456.00,87.99
1455.00,88.82
1454.00,89.57
1453.00,90.35
1452.00,91.11
1451.00,91.75
1450.00,92.25
1449.00,92.66
1448.00,93.01
1447.00,93.27
1446.00,93.46
1445.00,93.64
1444.00,93.81
1443.00,93.96
1442.00,94.10
1441.00,94.25
1440.00,94.41
1439.00,94.55
1438.00,94.70
1437.00,94.92
1436.00,95.17
1435.00,95.38
1434.00,95.58
1433.00,95.81
1432.00,96.06
1431.00,96.31
1430.00,96.56
1429.00,96.79
1428.00,97.00
1427.00,97.15
1426.00,97.28
1425.00,97.40
1424.00,97.51
1423.00,97.58
1422.00,97.62
1421.00,97.67
1420.00,97.73
1419.00,97.76
1418.00,97.79
1417.00,97.83
1416.00,97.86
1415.00,97.88
1414.00,97.89
1413.00,97.92
1412.00,97.96
1411.00,97.99
1410.00,98.01
1409.00,98.05
1408.00,98.09
1407.00,98.12
1406.00,98.14
1405.00,98.17
1404.00,98.21
1403.00,98.23
1402.00,98.24
1401.00,98.26
1400.00,98.29
1399.00,98.30
1398.00,98.30
1397.00,98.30
1396.00,98.32
1395.00,98.31
1394.00,98.31
1393.00,98.32
1392.00,98.32
1391.00,98.31
1390.00,98.29
1389.00,98.26
1388.00,98.23
1387.00,98.16
1386.00,98.07
1385.00,97.96
1384.00,97.80
1383.00,97.59
1382.00,97.31
1381.00,97.00
1380.00,96.71
1379.00,96.47
1378.00,96.34
1377.00,96.33
1376.00,96.42
1375.00,96.52
1374.00,96.61
1373.00,96.65
1372.00,96.65
1371.00,96.62
1370.00,96.60
1369.00,96.60
1368.00,96.64
1367.00,96.70
1366.00,96.78
1365.00,96.87
1364.00,96.98
1363.00,97.07
1362.00,97.15
1361.00,97.22
1360.00,97.28
1359.00,97.32
1358.00,97.34
1357.00,97.34
1356.00,97.33
1355.00,97.32
1354.00,97.30
1353.00,97.29
1352.00,97.31
1351.00,97.33
1350.00,97.37
1349.00,97.41
1348.00,97.47
1347.00,97.52
1346.00,97.57
1345.00,97.62
1344.00,97.66
1343.00,97.69
1342.00,97.72
1341.00,97.76
1340.00,97.81
1339.00,97.86
1338.00,97.92
1337.00,97.98
1336.00,98.05
1335.00,98.11
1334.00,98.15
1333.00,98.19
1332.00,98.22
1331.00,98.23
1330.00,98.24
1329.00,98.24
1328.00,98.24
1327.00,98.24
1326.00,98.22
1325.00,98.21
1324.00,98.20
1323.00,98.17
1322.00,98.14
1321.00,98.11
1320.00,98.08
1319.00,98.05
1318.00,98.02
1317.00,97.99
1316.00,97.97
1315.00,97.94
1314.00,97.90
1313.00,97.87
1312.00,97.84
1311.00,97.81
1310.00,97.78
1309.00,97.76
1308.00,97.74
1307.00,97.73
1306.00,97.71
1305.00,97.70
1304.00,97.70
1303.00,97.70
1302.00,97.71
1301.00,97.72
1300.00,97.74
1299.00,97.75
1298.00,97.77
1297.00,97.80
1296.00,97.83
1295.00,97.87
1294.00,97.90
1293.00,97.94
1292.00,97.97
1291.00,98.00
1290.00,98.02
1289.00,98.04
1288.00,98.07
1287.00,98.09
1286.00,98.10
1285.00,98.12
1284.00,98.14
1283.00,98.15
1282.00,98.16
1281.00,98.18
1280.00,98.19
1279.00,98.20
1278.00,98.20
1277.00,98.21
1276.00,98.22
1275.00,98.22
1274.00,98.22
1273.00,98.23
1272.00,98.24
1271.00,98.25
1270.00,98.25
1269.00,98.26
1268.00,98.27
1267.00,98.27
1266.00,98.27
1265.00,98.28
1264.00,98.28
1263.00,98.29
1262.00,98.29
1261.00,98.31
1260.00,98.33
1259.00,98.35
1258.00,98.38
1257.00,98.41
1256.00,98.46
1255.00,98.50
1254.00,98.53
1253.00,98.56
1252.00,98.59
1251.00,98.62
1250.00,98.65
1249.00,98.69
1248.00,98.73
1247.00,98.76
1246.00,98.79
1245.00,98.82
1244.00,98.84
1243.00,98.87
1242.00,98.88
1241.00,98.90
1240.00,98.91
1239.00,98.91
1238.00,98.91
1237.00,98.91
1236.00,98.91
1235.00,98.91
1234.00,98.91
1233.00,98.91
1232.00,98.91
1231.00,98.91
1230.00,98.90
1229.00,98.89
1228.00,98.89
1227.00,98.87
1226.00,98.86
1225.00,98.85
1224.00,98.85
1223.00,98.85
1222.00,98.85
1221.00,98.84
1220.00,98.84
1219.00,98.83
1218.00,98.82
1217.00,98.82
1216.00,98.82
1215.00,98.81
1214.00,98.79
1213.00,98.79
1212.00,98.78
1211.00,98.77
1210.00,98.76
1209.00,98.75
1208.00,98.75
1207.00,98.74
1206.00,98.73
1205.00,98.73
1204.00,98.73
1203.00,98.72
1202.00,98.71
1201.00,98.71
1200.00,98.70
1199.00,98.70
1198.00,98.70
1197.00,98.70
1196.00,98.70
1195.00,98.69
1194.00,98.68
1193.00,98.68
1192.00,98.68
1191.00,98.67
1190.00,98.66
1189.00,98.65
1188.00,98.64
1187.00,98.63
1186.00,98.62
1185.00,98.62
1184.00,98.62
1183.00,98.61
1182.00,98.60
1181.00,98.59
1180.00,98.58
1179.00,98.56
1178.00,98.55
1177.00,98.55
1176.00,98.55
1175.00,98.56
1174.00,98.57
1173.00,98.57
1172.00,98.57
1171.00,98.57
1170.00,98.57
1169.00,98.57
1168.00,98.58
1167.00,98.58
1166.00,98.59
1165.00,98.59
1164.00,98.59
1163.00,98.59
1162.00,98.59
1161.00,98.59
1160.00,98.59
1159.00,98.59
1158.00,98.58
1157.00,98.58
1156.00,98.57
1155.00,98.57
1154.00,98.57
1153.00,98.57
1152.00,98.57
1151.00,98.56
1150.00,98.56
1149.00,98.56
1148.00,98.57
1147.00,98.57
1146.00,98.57
1145.00,98.57
1144.00,98.57
1143.00,98.57
1142.00,98.57
1141.00,98.56
1140.00,98.56
1139.00,98.56
1138.00,98.56
1137.00,98.56
1136.00,98.56
1135.00,98.55
1134.00,98.54
1133.00,98.53
1132.00,98.52
1131.00,98.51
1130.00,98.50
1129.00,98.50
1128.00,98.50
1127.00,98.50
1126.00,98.50
1125.00,98.50
1124.00,98.50
1123.00,98.50
1122.00,98.49
1121.00,98.49
1120.00,98.48
1119.00,98.47
1118.00,98.45
1117.00,98.44
1116.00,98.42
1115.00,98.41
1114.00,98.39
1113.00,98.38
1112.00,98.38
1111.00,98.38
1110.00,98.38
1109.00,98.38
1108.00,98.37
1107.00,98.37
1106.00,98.36
1105.00,98.35
1104.00,98.35
1103.00,98.34
1102.00,98.33
1101.00,98.33
1100.00,98.32
1099.00,98.32
1098.00,98.31
1097.00,98.30
1096.00,98.29
1095.00,98.28
1094.00,98.26
1093.00,98.25
1092.00,98.24
1091.00,98.22
1090.00,98.19
1089.00,98.17
1088.00,98.16
1087.00,98.15
1086.00,98.15
1085.00,98.14
1084.00,98.15
1083.00,98.15
1082.00,98.14
1081.00,98.14
1080.00,98.14
1079.00,98.14
1078.00,98.14
1077.00,98.15
1076.00,98.16
1075.00,98.18
1074.00,98.20
1073.00,98.22
1072.00,98.23
1071.00,98.24
1070.00,98.24
1069.00,98.24
1068.00,98.26
1067.00,98.27
1066.00,98.27
1065.00,98.28
1064.00,98.28
1063.00,98.29
1062.00,98.29
1061.00,98.30
1060.00,98.31
1059.00,98.32
1058.00,98.32
1057.00,98.33
1056.00,98.33
1055.00,98.33
1054.00,98.31
1053.00,98.28
1052.00,98.26
1051.00,98.24
1050.00,98.23
1049.00,98.23
1048.00,98.24
1047.00,98.26
1046.00,98.28
1045.00,98.30
1044.00,98.33
1043.00,98.36
1042.00,98.37
1041.00,98.39
1040.00,98.41
1039.00,98.43
1038.00,98.45
1037.00,98.47
1036.00,98.49
1035.00,98.50
1034.00,98.51
1033.00,98.51
1032.00,98.52
1031.00,98.53
1030.00,98.53
1029.00,98.53
1028.00,98.53
1027.00,98.52
1026.00,98.51
1025.00,98.49
1024.00,98.47
1023.00,98.45
1022.00,98.42
1021.00,98.40
1020.00,98.38
1019.00,98.36
1018.00,98.35
1017.00,98.36
1016.00,98.38
1015.00,98.40
1014.00,98.44
1013.00,98.50
1012.00,98.55
1011.00,98.60
1010.00,98.63
1009.00,98.65
1008.00,98.69
1007.00,98.72
1006.00,98.75
1005.00,98.78
1004.00,98.80
1003.00,98.83
1002.00,98.84
1001.00,98.85
1000.00,98.86
999.00,98.87
998.00,98.88
997.00,98.90
996.00,98.91
995.00,98.93
994.00,98.93
993.00,98.94
992.00,98.95
991.00,98.95
990.00,98.95
989.00,98.95
988.00,98.96
987.00,98.96
986.00,98.97
985.00,98.97
984.00,98.98
983.00,98.99
982.00,98.99
981.00,98.99
980.00,99.00
979.00,99.00
978.00,99.00
977.00,99.00
976.00,99.00
975.00,99.00
974.00,98.99
973.00,98.98
972.00,98.98
971.00,98.98
970.00,98.98
969.00,98.98
968.00,98.98
967.00,98.98
966.00,98.98
965.00,98.97
964.00,98.98
963.00,98.98
962.00,98.99
961.00,99.00
960.00,99.01
959.00,99.02
958.00,99.02
957.00,99.03
956.00,99.03
955.00,99.03
954.00,99.03
953.00,99.04
952.00,99.04
951.00,99.05
950.00,99.05
949.00,99.07
948.00,99.08
947.00,99.08
946.00,99.08
945.00,99.07
944.00,99.08
943.00,99.08
942.00,99.08
941.00,99.08
940.00,99.08
939.00,99.07
938.00,99.06
937.00,99.05
936.00,99.05
935.00,99.05
934.00,99.05
933.00,99.06
932.00,99.06
931.00,99.07
930.00,99.08
929.00,99.09
928.00,99.09
927.00,99.08
926.00,99.06
925.00,99.05
924.00,99.04
923.00,99.04
922.00,99.04
921.00,99.05
920.00,99.06
919.00,99.06
918.00,99.05
917.00,99.04
916.00,99.03
915.00,99.02
914.00,99.01
913.00,99.01
912.00,99.00
911.00,99.00
910.00,98.99
909.00,98.99
908.00,98.99
907.00,99.00
906.00,99.00
905.00,99.00
904.00,98.99
903.00,98.99
902.00,98.97
901.00,98.97
900.00,98.96
899.00,98.96
898.00,98.94
897.00,98.92
896.00,98.91
895.00,98.89
894.00,98.86
893.00,98.85
892.00,98.84
891.00,98.83
890.00,98.82
889.00,98.80
888.00,98.80
887.00,98.81
886.00,98.82
885.00,98.84
884.00,98.86
883.00,98.88
882.00,98.90
881.00,98.93
880.00,98.94
879.00,98.94
878.00,98.94
877.00,98.95
876.00,98.96
875.00,98.97
874.00,98.97
873.00,98.98
872.00,99.01
871.00,99.03
870.00,99.03
869.00,99.03
868.00,99.03
867.00,99.04
866.00,99.04
865.00,99.04
864.00,99.05
863.00,99.05
862.00,99.03
861.00,99.02
860.00,99.02
859.00,99.03
858.00,99.03
857.00,99.04
856.00,99.04
855.00,99.04
854.00,99.03
853.00,99.03
852.00,99.05
851.00,99.06
850.00,99.07
849.00,99.06
848.00,99.06
847.00,99.05
846.00,99.04
845.00,99.03
844.00,99.03
843.00,99.03
842.00,99.04
841.00,99.04
840.00,99.04
839.00,99.03
838.00,99.01
837.00,99.00
836.00,99.00
835.00,99.00
834.00,99.00
833.00,98.99
832.00,98.99
831.00,98.99
830.00,98.98
829.00,98.97
828.00,98.96
827.00,98.94
826.00,98.92
825.00,98.91
824.00,98.91
823.00,98.92
822.00,98.93
821.00,98.93
820.00,98.93
819.00,98.92
818.00,98.90
817.00,98.88
816.00,98.86
815.00,98.84
814.00,98.83
813.00,98.81
812.00,98.80
811.00,98.79
810.00,98.77
809.00,98.76
808.00,98.75
807.00,98.75
806.00,98.74
805.00,98.72
804.00,98.70
803.00,98.70
802.00,98.69
801.00,98.68
800.00,98.67
799.00,98.66
798.00,98.63
797.00,98.62
796.00,98.61
795.00,98.61
794.00,98.60
793.00,98.59
792.00,98.58
791.00,98.58
790.00,98.58
789.00,98.58
788.00,98.56
787.00,98.55
786.00,98.52
785.00,98.50
784.00,98.48
783.00,98.47
782.00,98.45
781.00,98.42
780.00,98.40
779.00,98.39
778.00,98.36
777.00,98.34
776.00,98.32
775.00,98.30
774.00,98.28
773.00,98.27
772.00,98.26
771.00,98.27
770.00,98.27
769.00,98.26
768.00,98.23
767.00,98.21
766.00,98.19
765.00,98.17
764.00,98.15
763.00,98.14
762.00,98.13
761.00,98.12
760.00,98.11
759.00,98.09
758.00,98.06
757.00,98.01
756.00,97.98
755.00,97.95
754.00,97.90
753.00,97.84
752.00,97.78
751.00,97.73
750.00,97.69
749.00,97.64
748.00,97.57
747.00,97.48
746.00,97.38
745.00,97.27
744.00,97.15
743.00,97.02
742.00,96.87
741.00,96.68
740.00,96.44
739.00,96.16
738.00,95.78
737.00,95.23
736.00,94.39
735.00,92.97
734.00,90.63
733.00,87.33
732.00,83.67
731.00,80.85
730.00,79.83
729.00,80.62
728.00,82.34
727.00,83.90
726.00,84.62
725.00,84.36
724.00,83.12
723.00,80.78
722.00,77.31
721.00,73.24
720.00,69.82
719.00,68.34
718.00,69.21
717.00,71.88
716.00,75.48
715.00,79.34
714.00,82.98
713.00,86.09
712.00,88.52
711.00,90.34
710.00,91.71
709.00,92.79
708.00,93.65
707.00,94.33
706.00,94.89
705.00,95.38
704.00,95.80
703.00,96.15
702.00,96.45
701.00,96.71
700.00,96.94
699.00,97.13
698.00,97.29
697.00,97.44
696.00,97.58
695.00,97.68
694.00,97.76
693.00,97.85
692.00,97.94
691.00,98.00
690.00,98.05
689.00,98.11
688.00,98.17
687.00,98.21
686.00,98.24
685.00,98.27
684.00,98.30
683.00,98.32
682.00,98.35
681.00,98.40
680.00,98.44
679.00,98.44
678.00,98.44
677.00,98.45
676.00,98.48
675.00,98.48
674.00,98.49
673.00,98.51
672.00,98.53
671.00,98.54
670.00,98.54
669.00,98.58
668.00,98.65
667.00,98.68
666.00,98.68
665.00,98.69
664.00,98.71
663.00,98.73
662.00,98.75
661.00,98.75
660.00,98.75
659.00,98.73
658.00,98.74
657.00,98.80
656.00,98.86
655.00,98.90
654.00,98.90
653.00,98.90
652.00,98.89
651.00,98.85
650.00,98.82
