Created as New Dataset,PE High Density GF
cm-1,%T
4000.00,99.77
3999.00,99.77
3998.00,99.77
3997.00,99.77
3996.00,99.77
3995.00,99.77
3994.00,99.76
3993.00,99.76
3992.00,99.76
3991.00,99.76
3990.00,99.76
3989.00,99.76
3988.00,99.76
3987.00,99.76
3986.00,99.76
3985.00,99.76
3984.00,99.76
3983.00,99.76
3982.00,99.76
3981.00,99.76
3980.00,99.76
3979.00,99.76
3978.00,99.75
3977.00,99.75
3976.00,99.75
3975.00,99.76
3974.00,99.76
3973.00,99.76
3972.00,99.76
3971.00,99.77
3970.00,99.77
3969.00,99.77
3968.00,99.77
3967.00,99.77
3966.00,99.76
3965.00,99.76
3964.00,99.77
3963.00,99.77
3962.00,99.77
3961.00,99.77
3960.00,99.77
3959.00,99.77
3958.00,99.77
3957.00,99.77
3956.00,99.77
3955.00,99.77
3954.00,99.77
3953.00,99.77
3952.00,99.77
3951.00,99.77
3950.00,99.77
3949.00,99.77
3948.00,99.77
3947.00,99.77
3946.00,99.77
3945.00,99.76
3944.00,99.76
3943.00,99.75
3942.00,99.75
3941.00,99.75
3940.00,99.76
3939.00,99.76
3938.00,99.76
3937.00,99.76
3936.00,99.76
3935.00,99.75
3934.00,99.75
3933.00,99.75
3932.00,99.75
3931.00,99.75
3930.00,99.75
3929.00,99.75
3928.00,99.75
3927.00,99.75
3926.00,99.75
3925.00,99.75
3924.00,99.75
3923.00,99.75
3922.00,99.75
3921.00,99.74
3920.00,99.74
3919.00,99.74
3918.00,99.74
3917.00,99.74
3916.00,99.74
3915.00,99.74
3914.00,99.75
3913.00,99.75
3912.00,99.75
3911.00,99.75
3910.00,99.75
3909.00,99.75
3908.00,99.75
3907.00,99.74
3906.00,99.74
3905.00,99.74
3904.00,99.73
3903.00,99.73
3902.00,99.73
3901.00,99.74
3900.00,99.74
3899.00,99.74
3898.00,99.74
3897.00,99.74
3896.00,99.74
3895.00,99.74
3894.00,99.74
3893.00,99.74
3892.00,99.74
3891.00,99.74
3890.00,99.73
3889.00,99.73
3888.00,99.73
3887.00,99.73
3886.00,99.73
3885.00,99.73
3884.00,99.73
3883.00,99.73
3882.00,99.73
3881.00,99.73
3880.00,99.74
3879.00,99.74
3878.00,99.74
3877.00,99.74
3876.00,99.74
3875.00,99.74
3874.00,99.74
3873.00,99.74
3872.00,99.73
3871.00,99.73
3870.00,99.73
3869.00,99.73
3868.00,99.73
3867.00,99.74
3866.00,99.74
3865.00,99.74
3864.00,99.75
3863.00,99.75
3862.00,99.75
3861.00,99.75
3860.00,99.75
3859.00,99.75
3858.00,99.75
3857.00,99.74
3856.00,99.74
3855.00,99.74
3854.00,99.74
3853.00,99.74
3852.00,99.73
3851.00,99.74
3850.00,99.74
3849.00,99.75
3848.00,99.76
3847.00,99.76
3846.00,99.76
3845.00,99.76
3844.00,99.76
3843.00,99.75
3842.00,99.75
3841.00,99.75
3840.00,99.75
3839.00,99.75
3838.00,99.75
3837.00,99.75
3836.00,99.75
3835.00,99.75
3834.00,99.75
3833.00,99.75
3832.00,99.74
3831.00,99.74
3830.00,99.74
3829.00,99.75
3828.00,99.75
3827.00,99.75
3826.00,99.75
3825.00,99.74
3824.00,99.74
3823.00,99.74
3822.00,99.74
3821.00,99.74
3820.00,99.74
3819.00,99.73
3818.00,99.74
3817.00,99.74
3816.00,99.74
3815.00,99.75
3814.00,99.75
3813.00,99.75
3812.00,99.75
3811.00,99.75
3810.00,99.75
3809.00,99.75
3808.00,99.75
3807.00,99.75
3806.00,99.75
3805.00,99.75
3804.00,99.75
3803.00,99.76
3802.00,99.76
3801.00,99.76
3800.00,99.75
3799.00,99.75
3798.00,99.75
3797.00,99.76
3796.00,99.76
3795.00,99.76
3794.00,99.76
3793.00,99.77
3792.00,99.77
3791.00,99.77
3790.00,99.77
3789.00,99.76
3788.00,99.76
3787.00,99.76
3786.00,99.76
3785.00,99.76
3784.00,99.76
3783.00,99.76
3782.00,99.76
3781.00,99.76
3780.00,99.76
3779.00,99.76
3778.00,99.76
3777.00,99.76
3776.00,99.76
3775.00,99.76
3774.00,99.76
3773.00,99.76
3772.00,99.76
3771.00,99.76
3770.00,99.76
3769.00,99.76
3768.00,99.76
3767.00,99.76
3766.00,99.76
3765.00,99.76
3764.00,99.76
3763.00,99.76
3762.00,99.76
3761.00,99.76
3760.00,99.76
3759.00,99.76
3758.00,99.76
3757.00,99.76
3756.00,99.76
3755.00,99.75
3754.00,99.74
3753.00,99.74
3752.00,99.74
3751.00,99.73
3750.00,99.73
3749.00,99.73
3748.00,99.73
3747.00,99.73
3746.00,99.73
3745.00,99.74
3744.00,99.74
3743.00,99.74
3742.00,99.74
3741.00,99.74
3740.00,99.75
3739.00,99.75
3738.00,99.75
3737.00,99.75
3736.00,99.75
3735.00,99.75
3734.00,99.75
3733.00,99.75
3732.00,99.75
3731.00,99.75
3730.00,99.74
3729.00,99.74
3728.00,99.74
3727.00,99.74
3726.00,99.74
3725.00,99.75
3724.00,99.75
3723.00,99.75
3722.00,99.75
3721.00,99.75
3720.00,99.75
3719.00,99.76
3718.00,99.76
3717.00,99.76
3716.00,99.76
3715.00,99.75
3714.00,99.75
3713.00,99.75
3712.00,99.75
3711.00,99.74
3710.00,99.74
3709.00,99.74
3708.00,99.73
3707.00,99.73
3706.00,99.74
3705.00,99.74
3704.00,99.74
3703.00,99.74
3702.00,99.73
3701.00,99.73
3700.00,99.72
3699.00,99.72
3698.00,99.72
3697.00,99.72
3696.00,99.72
3695.00,99.72
3694.00,99.72
3693.00,99.71
3692.00,99.71
3691.00,99.71
3690.00,99.71
3689.00,99.71
3688.00,99.71
3687.00,99.71
3686.00,99.71
3685.00,99.71
3684.00,99.71
3683.00,99.70
3682.00,99.70
3681.00,99.70
3680.00,99.70
3679.00,99.69
3678.00,99.69
3677.00,99.69
3676.00,99.69
3675.00,99.68
3674.00,99.67
3673.00,99.67
3672.00,99.66
3671.00,99.66
3670.00,99.66
3669.00,99.67
3668.00,99.67
3667.00,99.67
3666.00,99.67
3665.00,99.67
3664.00,99.66
3663.00,99.66
3662.00,99.66
3661.00,99.65
3660.00,99.65
3659.00,99.64
3658.00,99.64
3657.00,99.62
3656.00,99.61
3655.00,99.60
3654.00,99.60
3653.00,99.59
3652.00,99.59
3651.00,99.59
3650.00,99.58
3649.00,99.57
3648.00,99.56
3647.00,99.56
3646.00,99.55
3645.00,99.56
3644.00,99.56
3643.00,99.56
3642.00,99.56
3641.00,99.56
3640.00,99.56
3639.00,99.56
3638.00,99.56
3637.00,99.56
3636.00,99.56
3635.00,99.56
3634.00,99.55
3633.00,99.55
3632.00,99.54
3631.00,99.52
3630.00,99.51
3629.00,99.50
3628.00,99.50
3627.00,99.49
3626.00,99.49
3625.00,99.49
3624.00,99.48
3623.00,99.48
3622.00,99.47
3621.00,99.46
3620.00,99.46
3619.00,99.45
3618.00,99.44
3617.00,99.42
3616.00,99.41
3615.00,99.39
3614.00,99.37
3613.00,99.36
3612.00,99.34
3611.00,99.33
3610.00,99.31
3609.00,99.30
3608.00,99.30
3607.00,99.29
3606.00,99.28
3605.00,99.27
3604.00,99.28
3603.00,99.28
3602.00,99.29
3601.00,99.29
3600.00,99.30
3599.00,99.31
3598.00,99.32
3597.00,99.32
3596.00,99.33
3595.00,99.33
3594.00,99.34
3593.00,99.34
3592.00,99.34
3591.00,99.34
3590.00,99.34
3589.00,99.34
3588.00,99.33
3587.00,99.32
3586.00,99.32
3585.00,99.32
3584.00,99.32
3583.00,99.32
3582.00,99.32
3581.00,99.32
3580.00,99.31
3579.00,99.31
3578.00,99.30
3577.00,99.29
3576.00,99.29
3575.00,99.28
3574.00,99.27
3573.00,99.27
3572.00,99.26
3571.00,99.26
3570.00,99.25
3569.00,99.25
3568.00,99.24
3567.00,99.24
3566.00,99.23
3565.00,99.23
3564.00,99.23
3563.00,99.22
3562.00,99.21
3561.00,99.21
3560.00,99.20
3559.00,99.20
3558.00,99.20
3557.00,99.19
3556.00,99.18
3555.00,99.18
3554.00,99.17
3553.00,99.17
3552.00,99.16
3551.00,99.16
3550.00,99.15
3549.00,99.14
3548.00,99.13
3547.00,99.13
3546.00,99.12
3545.00,99.12
3544.00,99.11
3543.00,99.11
3542.00,99.10
3541.00,99.10
3540.00,99.09
3539.00,99.09
3538.00,99.09
3537.00,99.08
3536.00,99.08
3535.00,99.07
3534.00,99.07
3533.00,99.06
3532.00,99.06
3531.00,99.06
3530.00,99.05
3529.00,99.04
3528.00,99.03
3527.00,99.03
3526.00,99.02
3525.00,99.02
3524.00,99.01
3523.00,99.00
3522.00,98.99
3521.00,98.99
3520.00,98.98
3519.00,98.98
3518.00,98.98
3517.00,98.98
3516.00,98.97
3515.00,98.96
3514.00,98.96
3513.00,98.95
3512.00,98.94
3511.00,98.94
3510.00,98.93
3509.00,98.92
3508.00,98.92
3507.00,98.92
3506.00,98.92
3505.00,98.92
3504.00,98.91
3503.00,98.91
3502.00,98.90
3501.00,98.89
3500.00,98.88
3499.00,98.88
3498.00,98.87
3497.00,98.87
3496.00,98.86
3495.00,98.86
3494.00,98.85
3493.00,98.85
3492.00,98.84
3491.00,98.84
3490.00,98.83
3489.00,98.83
3488.00,98.83
3487.00,98.82
3486.00,98.82
3485.00,98.81
3484.00,98.81
3483.00,98.80
3482.00,98.80
3481.00,98.79
3480.00,98.79
3479.00,98.78
3478.00,98.78
3477.00,98.77
3476.00,98.77
3475.00,98.76
3474.00,98.76
3473.00,98.75
3472.00,98.74
3471.00,98.74
3470.00,98.74
3469.00,98.73
3468.00,98.72
3467.00,98.72
3466.00,98.71
3465.00,98.71
3464.00,98.71
3463.00,98.70
3462.00,98.70
3461.00,98.70
3460.00,98.69
3459.00,98.69
3458.00,98.68
3457.00,98.68
3456.00,98.67
3455.00,98.67
3454.00,98.66
3453.00,98.66
3452.00,98.65
3451.00,98.64
3450.00,98.63
3449.00,98.63
3448.00,98.62
3447.00,98.62
3446.00,98.62
3445.00,98.61
3444.00,98.61
3443.00,98.61
3442.00,98.61
3441.00,98.60
3440.00,98.60
3439.00,98.59
3438.00,98.59
3437.00,98.58
3436.00,98.58
3435.00,98.58
3434.00,98.58
3433.00,98.57
3432.00,98.57
3431.00,98.57
3430.00,98.57
3429.00,98.57
3428.00,98.56
3427.00,98.55
3426.00,98.55
3425.00,98.54
3424.00,98.54
3423.00,98.54
3422.00,98.54
3421.00,98.53
3420.00,98.53
3419.00,98.53
3418.00,98.52
3417.00,98.51
3416.00,98.51
3415.00,98.51
3414.00,98.50
3413.00,98.50
3412.00,98.50
3411.00,98.50
3410.00,98.51
3409.00,98.50
3408.00,98.50
3407.00,98.50
3406.00,98.49
3405.00,98.49
3404.00,98.49
3403.00,98.48
3402.00,98.48
3401.00,98.47
3400.00,98.47
3399.00,98.47
3398.00,98.47
3397.00,98.47
3396.00,98.47
3395.00,98.47
3394.00,98.46
3393.00,98.46
3392.00,98.46
3391.00,98.46
3390.00,98.46
3389.00,98.46
3388.00,98.45
3387.00,98.44
3386.00,98.44
3385.00,98.43
3384.00,98.43
3383.00,98.43
3382.00,98.43
3381.00,98.44
3380.00,98.44
3379.00,98.44
3378.00,98.44
3377.00,98.44
3376.00,98.44
3375.00,98.44
3374.00,98.44
3373.00,98.44
3372.00,98.44
3371.00,98.44
3370.00,98.44
3369.00,98.44
3368.00,98.44
3367.00,98.44
3366.00,98.44
3365.00,98.44
3364.00,98.44
3363.00,98.44
3362.00,98.44
3361.00,98.44
3360.00,98.44
3359.00,98.45
3358.00,98.45
3357.00,98.45
3356.00,98.45
3355.00,98.45
3354.00,98.44
3353.00,98.44
3352.00,98.44
3351.00,98.44
3350.00,98.44
3349.00,98.43
3348.00,98.43
3347.00,98.43
3346.00,98.43
3345.00,98.43
3344.00,98.43
3343.00,98.43
3342.00,98.43
3341.00,98.42
3340.00,98.42
3339.00,98.42
3338.00,98.42
3337.00,98.42
3336.00,98.41
3335.00,98.41
3334.00,98.41
3333.00,98.40
3332.00,98.40
3331.00,98.40
3330.00,98.40
3329.00,98.40
3328.00,98.40
3327.00,98.39
3326.00,98.39
3325.00,98.38
3324.00,98.38
3323.00,98.37
3322.00,98.36
3321.00,98.36
3320.00,98.35
3319.00,98.35
3318.00,98.34
3317.00,98.33
3316.00,98.31
3315.00,98.30
3314.00,98.30
3313.00,98.29
3312.00,98.28
3311.00,98.27
3310.00,98.26
3309.00,98.25
3308.00,98.24
3307.00,98.23
3306.00,98.23
3305.00,98.22
3304.00,98.21
3303.00,98.21
3302.00,98.20
3301.00,98.20
3300.00,98.20
3299.00,98.20
3298.00,98.20
3297.00,98.20
3296.00,98.20
3295.00,98.20
3294.00,98.19
3293.00,98.18
3292.00,98.18
3291.00,98.17
3290.00,98.16
3289.00,98.15
3288.00,98.15
3287.00,98.14
3286.00,98.14
3285.00,98.13
3284.00,98.12
3283.00,98.12
3282.00,98.11
3281.00,98.11
3280.00,98.11
3279.00,98.11
3278.00,98.12
3277.00,98.12
3276.00,98.13
3275.00,98.14
3274.00,98.15
3273.00,98.16
3272.00,98.18
3271.00,98.19
3270.00,98.21
3269.00,98.22
3268.00,98.24
3267.00,98.26
3266.00,98.28
3265.00,98.30
3264.00,98.32
3263.00,98.34
3262.00,98.35
3261.00,98.37
3260.00,98.38
3259.00,98.39
3258.00,98.40
3257.00,98.41
3256.00,98.41
3255.00,98.42
3254.00,98.43
3253.00,98.45
3252.00,98.46
3251.00,98.48
3250.00,98.49
3249.00,98.50
3248.00,98.51
3247.00,98.52
3246.00,98.53
3245.00,98.53
3244.00,98.54
3243.00,98.55
3242.00,98.56
3241.00,98.57
3240.00,98.58
3239.00,98.59
3238.00,98.60
3237.00,98.61
3236.00,98.62
3235.00,98.63
3234.00,98.63
3233.00,98.64
3232.00,98.65
3231.00,98.65
3230.00,98.66
3229.00,98.67
3228.00,98.67
3227.00,98.67
3226.00,98.68
3225.00,98.68
3224.00,98.68
3223.00,98.69
3222.00,98.70
3221.00,98.70
3220.00,98.71
3219.00,98.72
3218.00,98.72
3217.00,98.72
3216.00,98.73
3215.00,98.73
3214.00,98.74
3213.00,98.74
3212.00,98.75
3211.00,98.75
3210.00,98.76
3209.00,98.76
3208.00,98.77
3207.00,98.78
3206.00,98.78
3205.00,98.79
3204.00,98.79
3203.00,98.79
3202.00,98.80
3201.00,98.81
3200.00,98.82
3199.00,98.82
3198.00,98.82
3197.00,98.83
3196.00,98.83
3195.00,98.84
3194.00,98.84
3193.00,98.85
3192.00,98.85
3191.00,98.86
3190.00,98.86
3189.00,98.87
3188.00,98.87
3187.00,98.88
3186.00,98.88
3185.00,98.89
3184.00,98.90
3183.00,98.91
3182.00,98.91
3181.00,98.91
3180.00,98.92
3179.00,98.92
3178.00,98.92
3177.00,98.93
3176.00,98.93
3175.00,98.93
3174.00,98.94
3173.00,98.94
3172.00,98.95
3171.00,98.95
3170.00,98.95
3169.00,98.96
3168.00,98.96
3167.00,98.96
3166.00,98.96
3165.00,98.97
3164.00,98.97
3163.00,98.97
3162.00,98.98
3161.00,98.98
3160.00,98.99
3159.00,98.99
3158.00,98.98
3157.00,98.98
3156.00,98.99
3155.00,99.00
3154.00,99.00
3153.00,99.01
3152.00,99.01
3151.00,99.01
3150.00,99.00
3149.00,99.00
3148.00,99.01
3147.00,99.01
3146.00,99.02
3145.00,99.02
3144.00,99.02
3143.00,99.02
3142.00,99.03
3141.00,99.03
3140.00,99.03
3139.00,99.03
3138.00,99.03
3137.00,99.03
3136.00,99.03
3135.00,99.03
3134.00,99.03
3133.00,99.04
3132.00,99.04
3131.00,99.04
3130.00,99.04
3129.00,99.04
3128.00,99.04
3127.00,99.04
3126.00,99.04
3125.00,99.03
3124.00,99.03
3123.00,99.03
3122.00,99.03
3121.00,99.03
3120.00,99.03
3119.00,99.02
3118.00,99.02
3117.00,99.02
3116.00,99.02
3115.00,99.01
3114.00,99.01
3113.00,99.01
3112.00,99.00
3111.00,99.00
3110.00,98.99
3109.00,98.99
3108.00,98.99
3107.00,98.98
3106.00,98.97
3105.00,98.96
3104.00,98.95
3103.00,98.93
3102.00,98.92
3101.00,98.91
3100.00,98.90
3099.00,98.89
3098.00,98.87
3097.00,98.85
3096.00,98.84
3095.00,98.82
3094.00,98.81
3093.00,98.80
3092.00,98.79
3091.00,98.78
3090.00,98.77
3089.00,98.77
3088.00,98.76
3087.00,98.76
3086.00,98.76
3085.00,98.76
3084.00,98.75
3083.00,98.75
3082.00,98.75
3081.00,98.75
3080.00,98.75
3079.00,98.74
3078.00,98.74
3077.00,98.74
3076.00,98.74
3075.00,98.74
3074.00,98.74
3073.00,98.74
3072.00,98.74
3071.00,98.74
3070.00,98.74
3069.00,98.74
3068.00,98.74
3067.00,98.74
3066.00,98.74
3065.00,98.74
3064.00,98.75
3063.00,98.74
3062.00,98.74
3061.00,98.74
3060.00,98.73
3059.00,98.73
3058.00,98.73
3057.00,98.73
3056.00,98.72
3055.00,98.72
3054.00,98.72
3053.00,98.71
3052.00,98.71
3051.00,98.71
3050.00,98.70
3049.00,98.70
3048.00,98.69
3047.00,98.68
3046.00,98.67
3045.00,98.65
3044.00,98.64
3043.00,98.63
3042.00,98.62
3041.00,98.60
3040.00,98.59
3039.00,98.58
3038.00,98.57
3037.00,98.56
3036.00,98.55
3035.00,98.54
3034.00,98.53
3033.00,98.52
3032.00,98.52
3031.00,98.51
3030.00,98.50
3029.00,98.49
3028.00,98.48
3027.00,98.48
3026.00,98.47
3025.00,98.47
3024.00,98.47
3023.00,98.46
3022.00,98.46
3021.00,98.45
3020.00,98.45
3019.00,98.44
3018.00,98.44
3017.00,98.43
3016.00,98.42
3015.00,98.40
3014.00,98.39
3013.00,98.38
3012.00,98.37
3011.00,98.35
3010.00,98.34
3009.00,98.32
3008.00,98.31
3007.00,98.29
3006.00,98.27
3005.00,98.25
3004.00,98.23
3003.00,98.20
3002.00,98.18
3001.00,98.15
3000.00,98.12
2999.00,98.09
2998.00,98.06
2997.00,98.03
2996.00,98.00
2995.00,97.97
2994.00,97.93
2993.00,97.89
2992.00,97.85
2991.00,97.81
2990.00,97.77
2989.00,97.73
2988.00,97.68
2987.00,97.63
2986.00,97.57
2985.00,97.51
2984.00,97.44
2983.00,97.37
2982.00,97.29
2981.00,97.22
2980.00,97.14
2979.00,97.07
2978.00,96.99
2977.00,96.90
2976.00,96.81
2975.00,96.70
2974.00,96.59
2973.00,96.48
2972.00,96.36
2971.00,96.23
2970.00,96.10
2969.00,95.97
2968.00,95.82
2967.00,95.67
2966.00,95.51
2965.00,95.33
2964.00,95.16
2963.00,94.97
2962.00,94.78
2961.00,94.59
2960.00,94.39
2959.00,94.19
2958.00,93.99
2957.00,93.79
2956.00,93.59
2955.00,93.39
2954.00,93.19
2953.00,92.97
2952.00,92.73
2951.00,92.48
2950.00,92.19
2949.00,91.85
2948.00,91.46
2947.00,90.99
2946.00,90.46
2945.00,89.84
2944.00,89.15
2943.00,88.37
2942.00,87.51
2941.00,86.56
2940.00,85.53
2939.00,84.41
2938.00,83.19
2937.00,81.88
2936.00,80.46
2935.00,78.94
2934.00,77.32
2933.00,75.58
2932.00,73.73
2931.00,71.76
2930.00,69.67
2929.00,67.43
2928.00,65.04
2927.00,62.45
2926.00,59.63
2925.00,56.55
2924.00,53.19
2923.00,49.56
2922.00,45.71
2921.00,41.73
2920.00,37.78
2919.00,34.11
2918.00,31.01
2917.00,28.80
2916.00,27.74
2915.00,27.90
2914.00,29.20
2913.00,31.38
2912.00,34.14
2911.00,37.17
2910.00,40.22
2909.00,43.15
2908.00,45.84
2907.00,48.26
2906.00,50.39
2905.00,52.27
2904.00,53.90
2903.00,55.34
2902.00,56.62
2901.00,57.78
2900.00,58.84
2899.00,59.85
2898.00,60.82
2897.00,61.78
2896.00,62.74
2895.00,63.71
2894.00,64.69
2893.00,65.69
2892.00,66.70
2891.00,67.74
2890.00,68.80
2889.00,69.88
2888.00,70.99
2887.00,72.11
2886.00,73.24
2885.00,74.39
2884.00,75.55
2883.00,76.72
2882.00,77.89
2881.00,79.05
2880.00,80.18
2879.00,81.26
2878.00,82.26
2877.00,83.17
2876.00,83.97
2875.00,84.66
2874.00,85.22
2873.00,85.67
2872.00,85.99
2871.00,86.21
2870.00,86.30
2869.00,86.28
2868.00,86.13
2867.00,85.85
2866.00,85.40
2865.00,84.78
2864.00,83.96
2863.00,82.93
2862.00,81.64
2861.00,80.09
2860.00,78.23
2859.00,76.05
2858.00,73.49
2857.00,70.52
2856.00,67.03
2855.00,62.91
2854.00,57.99
2853.00,52.22
2852.00,45.77
2851.00,39.23
2850.00,33.54
2849.00,29.78
2848.00,28.68
2847.00,30.38
2846.00,34.40
2845.00,39.88
2844.00,45.94
2843.00,51.91
2842.00,57.38
2841.00,62.17
2840.00,66.28
2839.00,69.75
2838.00,72.69
2837.00,75.19
2836.00,77.32
2835.00,79.14
2834.00,80.72
2833.00,82.08
2832.00,83.28
2831.00,84.33
2830.00,85.27
2829.00,86.11
2828.00,86.86
2827.00,87.55
2826.00,88.17
2825.00,88.74
2824.00,89.26
2823.00,89.74
2822.00,90.18
2821.00,90.58
2820.00,90.96
2819.00,91.31
2818.00,91.64
2817.00,91.95
2816.00,92.23
2815.00,92.50
2814.00,92.76
2813.00,93.00
2812.00,93.23
2811.00,93.45
2810.00,93.65
2809.00,93.85
2808.00,94.03
2807.00,94.21
2806.00,94.37
2805.00,94.53
2804.00,94.68
2803.00,94.83
2802.00,94.97
2801.00,95.10
2800.00,95.24
2799.00,95.37
2798.00,95.49
2797.00,95.61
2796.00,95.73
2795.00,95.84
2794.00,95.96
2793.00,96.07
2792.00,96.18
2791.00,96.29
2790.00,96.39
2789.00,96.50
2788.00,96.60
2787.00,96.69
2786.00,96.79
2785.00,96.87
2784.00,96.96
2783.00,97.04
2782.00,97.12
2781.00,97.19
2780.00,97.26
2779.00,97.32
2778.00,97.38
2777.00,97.44
2776.00,97.49
2775.00,97.54
2774.00,97.58
2773.00,97.63
2772.00,97.67
2771.00,97.71
2770.00,97.75
2769.00,97.79
2768.00,97.82
2767.00,97.85
2766.00,97.88
2765.00,97.91
2764.00,97.93
2763.00,97.96
2762.00,97.98
2761.00,98.01
2760.00,98.03
2759.00,98.06
2758.00,98.08
2757.00,98.10
2756.00,98.12
2755.00,98.14
2754.00,98.15
2753.00,98.17
2752.00,98.18
2751.00,98.19
2750.00,98.20
2749.00,98.20
2748.00,98.20
2747.00,98.20
2746.00,98.20
2745.00,98.20
2744.00,98.20
2743.00,98.20
2742.00,98.21
2741.00,98.21
2740.00,98.21
2739.00,98.22
2738.00,98.23
2737.00,98.24
2736.00,98.25
2735.00,98.26
2734.00,98.28
2733.00,98.29
2732.00,98.31
2731.00,98.32
2730.00,98.34
2729.00,98.35
2728.00,98.36
2727.00,98.38
2726.00,98.39
2725.00,98.41
2724.00,98.42
2723.00,98.43
2722.00,98.44
2721.00,98.45
2720.00,98.46
2719.00,98.47
2718.00,98.48
2717.00,98.49
2716.00,98.50
2715.00,98.51
2714.00,98.52
2713.00,98.52
2712.00,98.53
2711.00,98.53
2710.00,98.54
2709.00,98.55
2708.00,98.55
2707.00,98.56
2706.00,98.57
2705.00,98.58
2704.00,98.59
2703.00,98.61
2702.00,98.62
2701.00,98.63
2700.00,98.64
2699.00,98.66
2698.00,98.67
2697.00,98.67
2696.00,98.68
2695.00,98.68
2694.00,98.69
2693.00,98.69
2692.00,98.69
2691.00,98.69
2690.00,98.69
2689.00,98.68
2688.00,98.68
2687.00,98.67
2686.00,98.67
2685.00,98.67
2684.00,98.67
2683.00,98.66
2682.00,98.66
2681.00,98.65
2680.00,98.64
2679.00,98.63
2678.00,98.62
2677.00,98.61
2676.00,98.60
2675.00,98.59
2674.00,98.57
2673.00,98.56
2672.00,98.54
2671.00,98.53
2670.00,98.52
2669.00,98.51
2668.00,98.49
2667.00,98.48
2666.00,98.46
2665.00,98.45
2664.00,98.43
2663.00,98.42
2662.00,98.41
2661.00,98.40
2660.00,98.40
2659.00,98.39
2658.00,98.40
2657.00,98.40
2656.00,98.40
2655.00,98.41
2654.00,98.41
2653.00,98.42
2652.00,98.42
2651.00,98.42
2650.00,98.43
2649.00,98.43
2648.00,98.43
2647.00,98.43
2646.00,98.42
2645.00,98.41
2644.00,98.40
2643.00,98.39
2642.00,98.39
2641.00,98.38
2640.00,98.37
2639.00,98.36
2638.00,98.35
2637.00,98.34
2636.00,98.34
2635.00,98.35
2634.00,98.36
2633.00,98.37
2632.00,98.39
2631.00,98.41
2630.00,98.43
2629.00,98.45
2628.00,98.47
2627.00,98.49
2626.00,98.51
2625.00,98.53
2624.00,98.55
2623.00,98.57
2622.00,98.59
2621.00,98.61
2620.00,98.63
2619.00,98.65
2618.00,98.67
2617.00,98.69
2616.00,98.71
2615.00,98.72
2614.00,98.74
2613.00,98.75
2612.00,98.77
2611.00,98.78
2610.00,98.80
2609.00,98.81
2608.00,98.83
2607.00,98.84
2606.00,98.85
2605.00,98.87
2604.00,98.88
2603.00,98.88
2602.00,98.89
2601.00,98.90
2600.00,98.90
2599.00,98.91
2598.00,98.92
2597.00,98.94
2596.00,98.95
2595.00,98.96
2594.00,98.97
2593.00,98.98
2592.00,98.99
2591.00,99.00
2590.00,99.01
2589.00,99.03
2588.00,99.04
2587.00,99.05
2586.00,99.06
2585.00,99.06
2584.00,99.07
2583.00,99.08
2582.00,99.09
2581.00,99.09
2580.00,99.10
2579.00,99.11
2578.00,99.12
2577.00,99.13
2576.00,99.13
2575.00,99.14
2574.00,99.15
2573.00,99.16
2572.00,99.16
2571.00,99.17
2570.00,99.18
2569.00,99.19
2568.00,99.19
2567.00,99.20
2566.00,99.20
2565.00,99.21
2564.00,99.22
2563.00,99.22
2562.00,99.23
2561.00,99.23
2560.00,99.23
2559.00,99.23
2558.00,99.24
2557.00,99.24
2556.00,99.24
2555.00,99.24
2554.00,99.24
2553.00,99.24
2552.00,99.25
2551.00,99.25
2550.00,99.26
2549.00,99.26
2548.00,99.26
2547.00,99.26
2546.00,99.27
2545.00,99.29
2544.00,99.30
2543.00,99.32
2542.00,99.33
2541.00,99.34
2540.00,99.34
2539.00,99.35
2538.00,99.35
2537.00,99.35
2536.00,99.35
2535.00,99.35
2534.00,99.35
2533.00,99.35
2532.00,99.34
2531.00,99.34
2530.00,99.34
2529.00,99.34
2528.00,99.34
2527.00,99.34
2526.00,99.35
2525.00,99.36
2524.00,99.36
2523.00,99.37
2522.00,99.38
2521.00,99.39
2520.00,99.40
2519.00,99.40
2518.00,99.41
2517.00,99.42
2516.00,99.43
2515.00,99.43
2514.00,99.43
2513.00,99.44
2512.00,99.44
2511.00,99.44
2510.00,99.45
2509.00,99.45
2508.00,99.45
2507.00,99.45
2506.00,99.45
2505.00,99.46
2504.00,99.46
2503.00,99.46
2502.00,99.46
2501.00,99.47
2500.00,99.47
2499.00,99.46
2498.00,99.46
2497.00,99.47
2496.00,99.47
2495.00,99.48
2494.00,99.48
2493.00,99.48
2492.00,99.48
2491.00,99.48
2490.00,99.48
2489.00,99.48
2488.00,99.49
2487.00,99.49
2486.00,99.49
2485.00,99.49
2484.00,99.50
2483.00,99.50
2482.00,99.50
2481.00,99.50
2480.00,99.49
2479.00,99.49
2478.00,99.49
2477.00,99.49
2476.00,99.48
2475.00,99.48
2474.00,99.48
2473.00,99.49
2472.00,99.49
2471.00,99.51
2470.00,99.52
2469.00,99.52
2468.00,99.53
2467.00,99.53
2466.00,99.53
2465.00,99.54
2464.00,99.54
2463.00,99.55
2462.00,99.55
2461.00,99.54
2460.00,99.54
2459.00,99.54
2458.00,99.54
2457.00,99.53
2456.00,99.53
2455.00,99.53
2454.00,99.54
2453.00,99.54
2452.00,99.54
2451.00,99.54
2450.00,99.54
2449.00,99.54
2448.00,99.54
2447.00,99.54
2446.00,99.55
2445.00,99.55
2444.00,99.55
2443.00,99.55
2442.00,99.55
2441.00,99.55
2440.00,99.55
2439.00,99.55
2438.00,99.56
2437.00,99.56
2436.00,99.56
2435.00,99.56
2434.00,99.56
2433.00,99.56
2432.00,99.55
2431.00,99.55
2430.00,99.55
2429.00,99.55
2428.00,99.55
2427.00,99.54
2426.00,99.54
2425.00,99.54
2424.00,99.54
2423.00,99.54
2422.00,99.54
2421.00,99.54
2420.00,99.54
2419.00,99.53
2418.00,99.53
2417.00,99.53
2416.00,99.53
2415.00,99.53
2414.00,99.53
2413.00,99.54
2412.00,99.54
2411.00,99.55
2410.00,99.55
2409.00,99.56
2408.00,99.56
2407.00,99.57
2406.00,99.58
2405.00,99.59
2404.00,99.60
2403.00,99.60
2402.00,99.60
2401.00,99.60
2400.00,99.60
2399.00,99.60
2398.00,99.61
2397.00,99.61
2396.00,99.61
2395.00,99.60
2394.00,99.61
2393.00,99.61
2392.00,99.61
2391.00,99.61
2390.00,99.61
2389.00,99.61
2388.00,99.61
2387.00,99.60
2386.00,99.60
2385.00,99.59
2384.00,99.59
2383.00,99.58
2382.00,99.57
2381.00,99.57
2380.00,99.56
2379.00,99.56
2378.00,99.57
2377.00,99.58
2376.00,99.60
2375.00,99.61
2374.00,99.62
2373.00,99.63
2372.00,99.62
2371.00,99.61
2370.00,99.59
2369.00,99.57
2368.00,99.56
2367.00,99.56
2366.00,99.56
2365.00,99.54
2364.00,99.52
2363.00,99.50
2362.00,99.49
2361.00,99.47
2360.00,99.46
2359.00,99.46
2358.00,99.46
2357.00,99.47
2356.00,99.47
2355.00,99.47
2354.00,99.45
2353.00,99.43
2352.00,99.42
2351.00,99.42
2350.00,99.42
2349.00,99.40
2348.00,99.38
2347.00,99.37
2346.00,99.36
2345.00,99.35
2344.00,99.35
2343.00,99.33
2342.00,99.32
2341.00,99.31
2340.00,99.30
2339.00,99.30
2338.00,99.29
2337.00,99.29
2336.00,99.29
2335.00,99.28
2334.00,99.28
2333.00,99.26
2332.00,99.24
2331.00,99.24
2330.00,99.25
2329.00,99.26
2328.00,99.25
2327.00,99.22
2326.00,99.17
2325.00,99.11
2324.00,99.07
2323.00,99.07
2322.00,99.09
2321.00,99.13
2320.00,99.17
2319.00,99.20
2318.00,99.23
2317.00,99.24
2316.00,99.25
2315.00,99.25
2314.00,99.25
2313.00,99.25
2312.00,99.26
2311.00,99.26
2310.00,99.27
2309.00,99.27
2308.00,99.28
2307.00,99.29
2306.00,99.29
2305.00,99.30
2304.00,99.30
2303.00,99.31
2302.00,99.32
2301.00,99.32
2300.00,99.33
2299.00,99.34
2298.00,99.35
2297.00,99.35
2296.00,99.35
2295.00,99.35
2294.00,99.34
2293.00,99.34
2292.00,99.33
2291.00,99.32
2290.00,99.31
2289.00,99.30
2288.00,99.28
2287.00,99.28
2286.00,99.28
2285.00,99.28
2284.00,99.29
2283.00,99.31
2282.00,99.32
2281.00,99.34
2280.00,99.35
2279.00,99.36
2278.00,99.36
2277.00,99.36
2276.00,99.36
2275.00,99.36
2274.00,99.37
2273.00,99.38
2272.00,99.39
2271.00,99.40
2270.00,99.40
2269.00,99.41
2268.00,99.42
2267.00,99.43
2266.00,99.44
2265.00,99.45
2264.00,99.46
2263.00,99.47
2262.00,99.47
2261.00,99.47
2260.00,99.45
2259.00,99.44
2258.00,99.44
2257.00,99.44
2256.00,99.45
2255.00,99.47
2254.00,99.48
2253.00,99.49
2252.00,99.49
2251.00,99.49
2250.00,99.49
2249.00,99.48
2248.00,99.47
2247.00,99.47
2246.00,99.47
2245.00,99.46
2244.00,99.46
2243.00,99.46
2242.00,99.46
2241.00,99.46
2240.00,99.46
2239.00,99.47
2238.00,99.48
2237.00,99.48
2236.00,99.48
2235.00,99.49
2234.00,99.49
2233.00,99.50
2232.00,99.50
2231.00,99.50
2230.00,99.50
2229.00,99.51
2228.00,99.51
2227.00,99.51
2226.00,99.51
2225.00,99.50
2224.00,99.50
2223.00,99.51
2222.00,99.51
2221.00,99.50
2220.00,99.49
2219.00,99.48
2218.00,99.48
2217.00,99.48
2216.00,99.49
2215.00,99.50
2214.00,99.51
2213.00,99.52
2212.00,99.52
2211.00,99.51
2210.00,99.51
2209.00,99.50
2208.00,99.49
2207.00,99.49
2206.00,99.50
2205.00,99.50
2204.00,99.49
2203.00,99.48
2202.00,99.48
2201.00,99.47
2200.00,99.47
2199.00,99.46
2198.00,99.46
2197.00,99.45
2196.00,99.45
2195.00,99.45
2194.00,99.46
2193.00,99.45
2192.00,99.44
2191.00,99.43
2190.00,99.42
2189.00,99.41
2188.00,99.41
2187.00,99.41
2186.00,99.41
2185.00,99.40
2184.00,99.40
2183.00,99.41
2182.00,99.43
2181.00,99.45
2180.00,99.46
2179.00,99.46
2178.00,99.47
2177.00,99.46
2176.00,99.47
2175.00,99.48
2174.00,99.49
2173.00,99.48
2172.00,99.45
2171.00,99.41
2170.00,99.35
2169.00,99.30
2168.00,99.25
2167.00,99.22
2166.00,99.21
2165.00,99.21
2164.00,99.20
2163.00,99.18
2162.00,99.15
2161.00,99.17
2160.00,99.28
2159.00,99.47
2158.00,99.66
2157.00,99.79
2156.00,99.84
2155.00,99.83
2154.00,99.80
2153.00,99.76
2152.00,99.72
2151.00,99.69
2150.00,99.67
2149.00,99.67
2148.00,99.67
2147.00,99.68
2146.00,99.69
2145.00,99.69
2144.00,99.69
2143.00,99.69
2142.00,99.69
2141.00,99.69
2140.00,99.68
2139.00,99.69
2138.00,99.70
2137.00,99.72
2136.00,99.75
2135.00,99.80
2134.00,99.84
2133.00,99.86
2132.00,99.85
2131.00,99.83
2130.00,99.81
2129.00,99.78
2128.00,99.75
2127.00,99.73
2126.00,99.72
2125.00,99.70
2124.00,99.68
2123.00,99.68
2122.00,99.67
2121.00,99.67
2120.00,99.67
2119.00,99.66
2118.00,99.65
2117.00,99.64
2116.00,99.61
2115.00,99.59
2114.00,99.57
2113.00,99.56
2112.00,99.55
2111.00,99.56
2110.00,99.56
2109.00,99.56
2108.00,99.56
2107.00,99.57
2106.00,99.57
2105.00,99.57
2104.00,99.56
2103.00,99.55
2102.00,99.55
2101.00,99.55
2100.00,99.55
2099.00,99.56
2098.00,99.58
2097.00,99.60
2096.00,99.62
2095.00,99.64
2094.00,99.66
2093.00,99.65
2092.00,99.64
2091.00,99.63
2090.00,99.61
2089.00,99.58
2088.00,99.56
2087.00,99.54
2086.00,99.53
2085.00,99.52
2084.00,99.51
2083.00,99.51
2082.00,99.50
2081.00,99.50
2080.00,99.50
2079.00,99.50
2078.00,99.51
2077.00,99.51
2076.00,99.51
2075.00,99.51
2074.00,99.51
2073.00,99.51
2072.00,99.49
2071.00,99.49
2070.00,99.48
2069.00,99.48
2068.00,99.49
2067.00,99.50
2066.00,99.51
2065.00,99.50
2064.00,99.50
2063.00,99.50
2062.00,99.51
2061.00,99.51
2060.00,99.50
2059.00,99.49
2058.00,99.47
2057.00,99.45
2056.00,99.44
2055.00,99.44
2054.00,99.43
2053.00,99.39
2052.00,99.33
2051.00,99.28
2050.00,99.27
2049.00,99.29
2048.00,99.33
2047.00,99.36
2046.00,99.38
2045.00,99.38
2044.00,99.38
2043.00,99.37
2042.00,99.36
2041.00,99.33
2040.00,99.29
2039.00,99.26
2038.00,99.24
2037.00,99.23
2036.00,99.22
2035.00,99.24
2034.00,99.28
2033.00,99.31
2032.00,99.33
2031.00,99.35
2030.00,99.35
2029.00,99.34
2028.00,99.33
2027.00,99.32
2026.00,99.31
2025.00,99.29
2024.00,99.28
2023.00,99.28
2022.00,99.28
2021.00,99.29
2020.00,99.29
2019.00,99.29
2018.00,99.31
2017.00,99.32
2016.00,99.33
2015.00,99.35
2014.00,99.37
2013.00,99.38
2012.00,99.39
2011.00,99.40
2010.00,99.41
2009.00,99.42
2008.00,99.45
2007.00,99.49
2006.00,99.54
2005.00,99.56
2004.00,99.55
2003.00,99.54
2002.00,99.52
2001.00,99.50
2000.00,99.49
1999.00,99.47
1998.00,99.47
1997.00,99.46
1996.00,99.45
1995.00,99.46
1994.00,99.46
1993.00,99.45
1992.00,99.44
1991.00,99.43
1990.00,99.42
1989.00,99.41
1988.00,99.39
1987.00,99.38
1986.00,99.37
1985.00,99.35
1984.00,99.32
1983.00,99.30
1982.00,99.27
1981.00,99.23
1980.00,99.20
1979.00,99.21
1978.00,99.28
1977.00,99.36
1976.00,99.44
1975.00,99.48
1974.00,99.51
1973.00,99.52
1972.00,99.52
1971.00,99.53
1970.00,99.54
1969.00,99.55
1968.00,99.55
1967.00,99.54
1966.00,99.54
1965.00,99.52
1964.00,99.52
1963.00,99.54
1962.00,99.56
1961.00,99.58
1960.00,99.59
1959.00,99.60
1958.00,99.60
1957.00,99.60
1956.00,99.60
1955.00,99.60
1954.00,99.60
1953.00,99.59
1952.00,99.58
1951.00,99.58
1950.00,99.59
1949.00,99.59
1948.00,99.58
1947.00,99.59
1946.00,99.59
1945.00,99.60
1944.00,99.60
1943.00,99.60
1942.00,99.59
1941.00,99.59
1940.00,99.58
1939.00,99.59
1938.00,99.60
1937.00,99.61
1936.00,99.61
1935.00,99.60
1934.00,99.60
1933.00,99.60
1932.00,99.60
1931.00,99.60
1930.00,99.61
1929.00,99.61
1928.00,99.60
1927.00,99.59
1926.00,99.59
1925.00,99.58
1924.00,99.58
1923.00,99.58
1922.00,99.58
1921.00,99.57
1920.00,99.56
1919.00,99.55
1918.00,99.55
1917.00,99.54
1916.00,99.54
1915.00,99.55
1914.00,99.56
1913.00,99.56
1912.00,99.55
1911.00,99.54
1910.00,99.53
1909.00,99.53
1908.00,99.52
1907.00,99.51
1906.00,99.50
1905.00,99.50
1904.00,99.48
1903.00,99.48
1902.00,99.47
1901.00,99.46
1900.00,99.46
1899.00,99.45
1898.00,99.45
1897.00,99.44
1896.00,99.44
1895.00,99.44
1894.00,99.45
1893.00,99.46
1892.00,99.47
1891.00,99.49
1890.00,99.52
1889.00,99.54
1888.00,99.55
1887.00,99.56
1886.00,99.58
1885.00,99.59
1884.00,99.60
1883.00,99.61
1882.00,99.62
1881.00,99.62
1880.00,99.61
1879.00,99.61
1878.00,99.61
1877.00,99.62
1876.00,99.62
1875.00,99.63
1874.00,99.64
1873.00,99.65
1872.00,99.64
1871.00,99.64
1870.00,99.64
1869.00,99.65
1868.00,99.65
1867.00,99.65
1866.00,99.65
1865.00,99.65
1864.00,99.66
1863.00,99.66
1862.00,99.67
1861.00,99.67
1860.00,99.67
1859.00,99.67
1858.00,99.67
1857.00,99.67
1856.00,99.66
1855.00,99.66
1854.00,99.66
1853.00,99.67
1852.00,99.67
1851.00,99.67
1850.00,99.67
1849.00,99.66
1848.00,99.65
1847.00,99.64
1846.00,99.63
1845.00,99.63
1844.00,99.63
1843.00,99.64
1842.00,99.65
1841.00,99.65
1840.00,99.65
1839.00,99.66
1838.00,99.66
1837.00,99.65
1836.00,99.64
1835.00,99.64
1834.00,99.64
1833.00,99.63
1832.00,99.62
1831.00,99.62
1830.00,99.63
1829.00,99.63
1828.00,99.62
1827.00,99.61
1826.00,99.61
1825.00,99.60
1824.00,99.59
1823.00,99.58
1822.00,99.58
1821.00,99.58
1820.00,99.58
1819.00,99.59
1818.00,99.61
1817.00,99.62
1816.00,99.63
1815.00,99.62
1814.00,99.61
1813.00,99.60
1812.00,99.59
1811.00,99.58
1810.00,99.58
1809.00,99.58
1808.00,99.58
1807.00,99.58
1806.00,99.58
1805.00,99.58
1804.00,99.57
1803.00,99.57
1802.00,99.56
1801.00,99.56
1800.00,99.56
1799.00,99.56
1798.00,99.55
1797.00,99.55
1796.00,99.53
1795.00,99.53
1794.00,99.52
1793.00,99.52
1792.00,99.52
1791.00,99.52
1790.00,99.52
1789.00,99.52
1788.00,99.52
1787.00,99.51
1786.00,99.51
1785.00,99.50
1784.00,99.50
1783.00,99.49
1782.00,99.49
1781.00,99.48
1780.00,99.47
1779.00,99.47
1778.00,99.47
1777.00,99.47
1776.00,99.46
1775.00,99.45
1774.00,99.45
1773.00,99.44
1772.00,99.43
1771.00,99.42
1770.00,99.41
1769.00,99.39
1768.00,99.38
1767.00,99.37
1766.00,99.37
1765.00,99.37
1764.00,99.36
1763.00,99.35
1762.00,99.34
1761.00,99.32
1760.00,99.31
1759.00,99.29
1758.00,99.28
1757.00,99.26
1756.00,99.23
1755.00,99.21
1754.00,99.19
1753.00,99.17
1752.00,99.13
1751.00,99.11
1750.00,99.08
1749.00,99.05
1748.00,99.02
1747.00,98.99
1746.00,98.96
1745.00,98.92
1744.00,98.89
1743.00,98.85
1742.00,98.83
1741.00,98.80
1740.00,98.77
1739.00,98.75
1738.00,98.73
1737.00,98.71
1736.00,98.69
1735.00,98.66
1734.00,98.64
1733.00,98.61
1732.00,98.59
1731.00,98.57
1730.00,98.57
1729.00,98.57
1728.00,98.57
1727.00,98.58
1726.00,98.59
1725.00,98.59
1724.00,98.59
1723.00,98.58
1722.00,98.57
1721.00,98.56
1720.00,98.53
1719.00,98.50
1718.00,98.47
1717.00,98.43
1716.00,98.39
1715.00,98.37
1714.00,98.35
1713.00,98.32
1712.00,98.30
1711.00,98.27
1710.00,98.25
1709.00,98.22
1708.00,98.18
1707.00,98.14
1706.00,98.09
1705.00,98.03
1704.00,97.98
1703.00,97.93
1702.00,97.88
1701.00,97.81
1700.00,97.74
1699.00,97.70
1698.00,97.69
1697.00,97.68
1696.00,97.66
1695.00,97.65
1694.00,97.64
1693.00,97.64
1692.00,97.63
1691.00,97.63
1690.00,97.62
1689.00,97.61
1688.00,97.60
1687.00,97.59
1686.00,97.59
1685.00,97.58
1684.00,97.55
1683.00,97.53
1682.00,97.51
1681.00,97.50
1680.00,97.48
1679.00,97.46
1678.00,97.44
1677.00,97.41
1676.00,97.36
1675.00,97.33
1674.00,97.31
1673.00,97.29
1672.00,97.28
1671.00,97.27
1670.00,97.26
1669.00,97.24
1668.00,97.23
1667.00,97.22
1666.00,97.21
1665.00,97.20
1664.00,97.18
1663.00,97.16
1662.00,97.15
1661.00,97.13
1660.00,97.11
1659.00,97.10
1658.00,97.09
1657.00,97.08
1656.00,97.06
1655.00,97.04
1654.00,97.02
1653.00,96.98
1652.00,96.94
1651.00,96.92
1650.00,96.89
1649.00,96.84
1648.00,96.74
1647.00,96.60
1646.00,96.44
1645.00,96.29
1644.00,96.18
1643.00,96.10
1642.00,96.06
1641.00,96.06
1640.00,96.10
1639.00,96.16
1638.00,96.23
1637.00,96.32
1636.00,96.43
1635.00,96.54
1634.00,96.64
1633.00,96.73
1632.00,96.81
1631.00,96.89
1630.00,96.98
1629.00,97.06
1628.00,97.13
1627.00,97.19
1626.00,97.24
1625.00,97.29
1624.00,97.34
1623.00,97.39
1622.00,97.43
1621.00,97.45
1620.00,97.47
1619.00,97.49
1618.00,97.52
1617.00,97.55
1616.00,97.57
1615.00,97.58
1614.00,97.60
1613.00,97.60
1612.00,97.61
1611.00,97.62
1610.00,97.64
1609.00,97.66
1608.00,97.66
1607.00,97.67
1606.00,97.68
1605.00,97.67
1604.00,97.67
1603.00,97.67
1602.00,97.67
1601.00,97.66
1600.00,97.65
1599.00,97.65
1598.00,97.65
1597.00,97.64
1596.00,97.63
1595.00,97.61
1594.00,97.60
1593.00,97.58
1592.00,97.56
1591.00,97.54
1590.00,97.53
1589.00,97.50
1588.00,97.48
1587.00,97.45
1586.00,97.42
1585.00,97.39
1584.00,97.35
1583.00,97.32
1582.00,97.30
1581.00,97.27
1580.00,97.23
1579.00,97.21
1578.00,97.19
1577.00,97.18
1576.00,97.16
1575.00,97.15
1574.00,97.15
1573.00,97.15
1572.00,97.15
1571.00,97.15
1570.00,97.16
1569.00,97.16
1568.00,97.16
1567.00,97.16
1566.00,97.17
1565.00,97.17
1564.00,97.16
1563.00,97.16
1562.00,97.15
1561.00,97.15
1560.00,97.13
1559.00,97.14
1558.00,97.15
1557.00,97.15
1556.00,97.14
1555.00,97.15
1554.00,97.16
1553.00,97.16
1552.00,97.16
1551.00,97.16
1550.00,97.17
1549.00,97.18
1548.00,97.17
1547.00,97.18
1546.00,97.19
1545.00,97.20
1544.00,97.20
1543.00,97.21
1542.00,97.25
1541.00,97.31
1540.00,97.40
1539.00,97.49
1538.00,97.56
1537.00,97.61
1536.00,97.65
1535.00,97.70
1534.00,97.79
1533.00,97.86
1532.00,97.91
1531.00,97.95
1530.00,97.99
1529.00,98.01
1528.00,98.03
1527.00,98.06
1526.00,98.10
1525.00,98.13
1524.00,98.13
1523.00,98.15
1522.00,98.19
1521.00,98.21
1520.00,98.21
1519.00,98.21
1518.00,98.24
1517.00,98.24
1516.00,98.24
1515.00,98.25
1514.00,98.27
1513.00,98.28
1512.00,98.27
1511.00,98.26
1510.00,98.28
1509.00,98.27
1508.00,98.24
1507.00,98.24
1506.00,98.26
1505.00,98.25
1504.00,98.22
1503.00,98.20
1502.00,98.20
1501.00,98.17
1500.00,98.12
1499.00,98.09
1498.00,98.07
1497.00,98.02
1496.00,97.94
1495.00,97.90
1494.00,97.88
1493.00,97.84
1492.00,97.76
1491.00,97.70
1490.00,97.65
1489.00,97.56
1488.00,97.44
1487.00,97.34
1486.00,97.25
1485.00,97.12
1484.00,96.94
1483.00,96.74
1482.00,96.47
1481.00,96.08
1480.00,95.55
1479.00,94.79
1478.00,93.41
1477.00,90.83
1476.00,86.85
1475.00,82.02
1474.00,77.69
1473.00,75.77
1472.00,76.95
1471.00,79.43
1470.00,81.28
1469.00,82.09
1468.00,82.12
1467.00,81.32
1466.00,79.04
1465.00,74.84
1464.00,70.08
1463.00,67.05
1462.00,66.92
1461.00,69.49
1460.00,73.89
1459.00,78.95
1458.00,83.49
1457.00,86.69
1456.00,88.52
1455.00,89.57
1454.00,90.34
1453.00,91.05
1452.00,91.74
1451.00,92.28
1450.00,92.67
1449.00,92.98
1448.00,93.25
1447.00,93.44
1446.00,93.57
1445.00,93.68
1444.00,93.80
1443.00,93.90
1442.00,93.98
1441.00,94.07
1440.00,94.18
1439.00,94.27
1438.00,94.35
1437.00,94.48
1436.00,94.66
1435.00,94.83
1434.00,94.99
1433.00,95.18
1432.00,95.40
1431.00,95.62
1430.00,95.82
1429.00,96.03
1428.00,96.22
1427.00,96.36
1426.00,96.48
1425.00,96.60
1424.00,96.71
1423.00,96.79
1422.00,96.84
1421.00,96.88
1420.00,96.95
1419.00,97.00
1418.00,97.04
1417.00,97.08
1416.00,97.12
1415.00,97.15
1414.00,97.16
1413.00,97.18
1412.00,97.21
1411.00,97.24
1410.00,97.25
1409.00,97.27
1408.00,97.30
1407.00,97.31
1406.00,97.31
1405.00,97.32
1404.00,97.35
1403.00,97.36
1402.00,97.35
1401.00,97.36
1400.00,97.36
1399.00,97.36
1398.00,97.35
1397.00,97.35
1396.00,97.36
1395.00,97.35
1394.00,97.33
1393.00,97.33
1392.00,97.33
1391.00,97.32
1390.00,97.30
1389.00,97.29
1388.00,97.29
1387.00,97.28
1386.00,97.27
1385.00,97.26
1384.00,97.24
1383.00,97.20
1382.00,97.12
1381.00,97.03
1380.00,96.93
1379.00,96.82
1378.00,96.73
1377.00,96.67
1376.00,96.62
1375.00,96.57
1374.00,96.48
1373.00,96.39
1372.00,96.29
1371.00,96.20
1370.00,96.11
1369.00,96.05
1368.00,96.04
1367.00,96.06
1366.00,96.10
1365.00,96.17
1364.00,96.25
1363.00,96.33
1362.00,96.41
1361.00,96.48
1360.00,96.54
1359.00,96.58
1358.00,96.61
1357.00,96.62
1356.00,96.63
1355.00,96.62
1354.00,96.62
1353.00,96.62
1352.00,96.64
1351.00,96.68
1350.00,96.72
1349.00,96.78
1348.00,96.85
1347.00,96.92
1346.00,96.98
1345.00,97.05
1344.00,97.12
1343.00,97.17
1342.00,97.22
1341.00,97.26
1340.00,97.31
1339.00,97.36
1338.00,97.41
1337.00,97.46
1336.00,97.52
1335.00,97.57
1334.00,97.60
1333.00,97.62
1332.00,97.64
1331.00,97.64
1330.00,97.64
1329.00,97.63
1328.00,97.63
1327.00,97.62
1326.00,97.60
1325.00,97.59
1324.00,97.57
1323.00,97.55
1322.00,97.52
1321.00,97.50
1320.00,97.48
1319.00,97.47
1318.00,97.46
1317.00,97.45
1316.00,97.44
1315.00,97.43
1314.00,97.42
1313.00,97.40
1312.00,97.39
1311.00,97.38
1310.00,97.37
1309.00,97.35
1308.00,97.35
1307.00,97.34
1306.00,97.33
1305.00,97.33
1304.00,97.32
1303.00,97.32
1302.00,97.32
1301.00,97.33
1300.00,97.34
1299.00,97.36
1298.00,97.38
1297.00,97.40
1296.00,97.43
1295.00,97.47
1294.00,97.50
1293.00,97.53
1292.00,97.56
1291.00,97.59
1290.00,97.61
1289.00,97.63
1288.00,97.65
1287.00,97.67
1286.00,97.69
1285.00,97.72
1284.00,97.75
1283.00,97.78
1282.00,97.80
1281.00,97.82
1280.00,97.84
1279.00,97.85
1278.00,97.86
1277.00,97.87
1276.00,97.87
1275.00,97.88
1274.00,97.88
1273.00,97.88
1272.00,97.89
1271.00,97.89
1270.00,97.89
1269.00,97.88
1268.00,97.88
1267.00,97.88
1266.00,97.88
1265.00,97.88
1264.00,97.88
1263.00,97.88
1262.00,97.87
1261.00,97.87
1260.00,97.87
1259.00,97.87
1258.00,97.86
1257.00,97.87
1256.00,97.89
1255.00,97.91
1254.00,97.94
1253.00,97.97
1252.00,98.01
1251.00,98.04
1250.00,98.06
1249.00,98.09
1248.00,98.12
1247.00,98.15
1246.00,98.18
1245.00,98.21
1244.00,98.25
1243.00,98.27
1242.00,98.29
1241.00,98.30
1240.00,98.32
1239.00,98.32
1238.00,98.32
1237.00,98.31
1236.00,98.31
1235.00,98.30
1234.00,98.29
1233.00,98.27
1232.00,98.26
1231.00,98.25
1230.00,98.23
1229.00,98.22
1228.00,98.22
1227.00,98.21
1226.00,98.19
1225.00,98.17
1224.00,98.16
1223.00,98.14
1222.00,98.12
1221.00,98.11
1220.00,98.10
1219.00,98.09
1218.00,98.07
1217.00,98.06
1216.00,98.04
1215.00,98.02
1214.00,97.99
1213.00,97.98
1212.00,97.97
1211.00,97.96
1210.00,97.95
1209.00,97.94
1208.00,97.93
1207.00,97.93
1206.00,97.92
1205.00,97.91
1204.00,97.92
1203.00,97.94
1202.00,97.94
1201.00,97.94
1200.00,97.93
1199.00,97.92
1198.00,97.90
1197.00,97.88
1196.00,97.86
1195.00,97.83
1194.00,97.81
1193.00,97.78
1192.00,97.76
1191.00,97.74
1190.00,97.71
1189.00,97.69
1188.00,97.68
1187.00,97.66
1186.00,97.65
1185.00,97.63
1184.00,97.62
1183.00,97.60
1182.00,97.58
1181.00,97.56
1180.00,97.54
1179.00,97.51
1178.00,97.48
1177.00,97.46
1176.00,97.46
1175.00,97.47
1174.00,97.48
1173.00,97.49
1172.00,97.50
1171.00,97.50
1170.00,97.49
1169.00,97.49
1168.00,97.49
1167.00,97.49
1166.00,97.48
1165.00,97.48
1164.00,97.47
1163.00,97.46
1162.00,97.44
1161.00,97.43
1160.00,97.43
1159.00,97.44
1158.00,97.43
1157.00,97.43
1156.00,97.43
1155.00,97.42
1154.00,97.41
1153.00,97.40
1152.00,97.40
1151.00,97.39
1150.00,97.38
1149.00,97.37
1148.00,97.37
1147.00,97.36
1146.00,97.36
1145.00,97.36
1144.00,97.36
1143.00,97.35
1142.00,97.34
1141.00,97.33
1140.00,97.32
1139.00,97.31
1138.00,97.29
1137.00,97.28
1136.00,97.28
1135.00,97.27
1134.00,97.25
1133.00,97.24
1132.00,97.22
1131.00,97.20
1130.00,97.18
1129.00,97.16
1128.00,97.14
1127.00,97.11
1126.00,97.09
1125.00,97.06
1124.00,97.04
1123.00,97.00
1122.00,96.97
1121.00,96.94
1120.00,96.91
1119.00,96.88
1118.00,96.85
1117.00,96.82
1116.00,96.81
1115.00,96.79
1114.00,96.77
1113.00,96.76
1112.00,96.75
1111.00,96.74
1110.00,96.72
1109.00,96.71
1108.00,96.71
1107.00,96.71
1106.00,96.71
1105.00,96.70
1104.00,96.70
1103.00,96.70
1102.00,96.70
1101.00,96.70
1100.00,96.71
1099.00,96.71
1098.00,96.70
1097.00,96.70
1096.00,96.70
1095.00,96.70
1094.00,96.69
1093.00,96.69
1092.00,96.68
1091.00,96.67
1090.00,96.66
1089.00,96.65
1088.00,96.64
1087.00,96.64
1086.00,96.62
1085.00,96.59
1084.00,96.58
1083.00,96.57
1082.00,96.58
1081.00,96.61
1080.00,96.64
1079.00,96.68
1078.00,96.71
1077.00,96.74
1076.00,96.78
1075.00,96.82
1074.00,96.87
1073.00,96.91
1072.00,96.96
1071.00,96.99
1070.00,97.02
1069.00,97.05
1068.00,97.08
1067.00,97.11
1066.00,97.13
1065.00,97.15
1064.00,97.18
1063.00,97.21
1062.00,97.23
1061.00,97.26
1060.00,97.29
1059.00,97.32
1058.00,97.34
1057.00,97.36
1056.00,97.37
1055.00,97.38
1054.00,97.37
1053.00,97.36
1052.00,97.35
1051.00,97.36
1050.00,97.39
1049.00,97.43
1048.00,97.47
1047.00,97.51
1046.00,97.54
1045.00,97.56
1044.00,97.58
1043.00,97.60
1042.00,97.61
1041.00,97.62
1040.00,97.64
1039.00,97.66
1038.00,97.68
1037.00,97.70
1036.00,97.72
1035.00,97.75
1034.00,97.77
1033.00,97.80
1032.00,97.83
1031.00,97.86
1030.00,97.89
1029.00,97.92
1028.00,97.96
1027.00,97.99
1026.00,98.01
1025.00,98.03
1024.00,98.04
1023.00,98.05
1022.00,98.06
1021.00,98.06
1020.00,98.08
1019.00,98.09
1018.00,98.10
1017.00,98.11
1016.00,98.12
1015.00,98.14
1014.00,98.16
1013.00,98.19
1012.00,98.22
1011.00,98.26
1010.00,98.28
1009.00,98.31
1008.00,98.35
1007.00,98.38
1006.00,98.40
1005.00,98.43
1004.00,98.44
1003.00,98.46
1002.00,98.46
1001.00,98.47
1000.00,98.47
999.00,98.47
998.00,98.45
997.00,98.44
996.00,98.42
995.00,98.40
994.00,98.38
993.00,98.37
992.00,98.36
991.00,98.37
990.00,98.38
989.00,98.42
988.00,98.47
987.00,98.51
986.00,98.55
985.00,98.58
984.00,98.61
983.00,98.64
982.00,98.66
981.00,98.67
980.00,98.68
979.00,98.68
978.00,98.67
977.00,98.66
976.00,98.66
975.00,98.65
974.00,98.65
973.00,98.65
972.00,98.64
971.00,98.62
970.00,98.60
969.00,98.58
968.00,98.56
967.00,98.55
966.00,98.54
965.00,98.53
964.00,98.54
963.00,98.54
962.00,98.55
961.00,98.55
960.00,98.56
959.00,98.57
958.00,98.57
957.00,98.57
956.00,98.57
955.00,98.57
954.00,98.58
953.00,98.58
952.00,98.59
951.00,98.59
950.00,98.60
949.00,98.60
948.00,98.61
947.00,98.61
946.00,98.61
945.00,98.60
944.00,98.60
943.00,98.60
942.00,98.60
941.00,98.61
940.00,98.62
939.00,98.62
938.00,98.61
937.00,98.59
936.00,98.58
935.00,98.58
934.00,98.58
933.00,98.58
932.00,98.60
931.00,98.61
930.00,98.62
929.00,98.61
928.00,98.61
927.00,98.60
926.00,98.60
925.00,98.60
924.00,98.61
923.00,98.60
922.00,98.59
921.00,98.58
920.00,98.56
919.00,98.55
918.00,98.53
917.00,98.50
916.00,98.45
915.00,98.37
914.00,98.26
913.00,98.13
912.00,97.97
911.00,97.81
910.00,97.67
909.00,97.60
908.00,97.62
907.00,97.71
906.00,97.86
905.00,98.01
904.00,98.15
903.00,98.27
902.00,98.35
901.00,98.41
900.00,98.45
899.00,98.48
898.00,98.49
897.00,98.50
896.00,98.51
895.00,98.51
894.00,98.51
893.00,98.51
892.00,98.51
891.00,98.51
890.00,98.51
889.00,98.50
888.00,98.50
887.00,98.50
886.00,98.49
885.00,98.48
884.00,98.49
883.00,98.49
882.00,98.50
881.00,98.49
880.00,98.50
879.00,98.51
878.00,98.51
877.00,98.51
876.00,98.51
875.00,98.52
874.00,98.53
873.00,98.55
872.00,98.57
871.00,98.58
870.00,98.58
869.00,98.57
868.00,98.58
867.00,98.58
866.00,98.57
865.00,98.56
864.00,98.56
863.00,98.56
862.00,98.56
861.00,98.55
860.00,98.55
859.00,98.55
858.00,98.53
857.00,98.52
856.00,98.51
855.00,98.50
854.00,98.50
853.00,98.50
852.00,98.50
851.00,98.50
850.00,98.50
849.00,98.49
848.00,98.50
847.00,98.50
846.00,98.49
845.00,98.49
844.00,98.50
843.00,98.52
842.00,98.54
841.00,98.55
840.00,98.54
839.00,98.53
838.00,98.51
837.00,98.50
836.00,98.48
835.00,98.48
834.00,98.47
833.00,98.46
832.00,98.46
831.00,98.46
830.00,98.45
829.00,98.44
828.00,98.44
827.00,98.45
826.00,98.45
825.00,98.44
824.00,98.43
823.00,98.42
822.00,98.41
821.00,98.40
820.00,98.39
819.00,98.38
818.00,98.37
817.00,98.36
816.00,98.36
815.00,98.35
814.00,98.34
813.00,98.32
812.00,98.31
811.00,98.31
810.00,98.31
809.00,98.31
808.00,98.33
807.00,98.33
806.00,98.32
805.00,98.30
804.00,98.29
803.00,98.31
802.00,98.32
801.00,98.33
800.00,98.33
799.00,98.32
798.00,98.31
797.00,98.30
796.00,98.29
795.00,98.29
794.00,98.28
793.00,98.25
792.00,98.23
791.00,98.22
790.00,98.21
789.00,98.20
788.00,98.19
787.00,98.17
786.00,98.13
785.00,98.09
784.00,98.07
783.00,98.06
782.00,98.05
781.00,98.06
780.00,98.07
779.00,98.09
778.00,98.09
777.00,98.08
776.00,98.06
775.00,98.05
774.00,98.04
773.00,98.02
772.00,98.01
771.00,98.00
770.00,97.98
769.00,97.95
768.00,97.93
767.00,97.93
766.00,97.93
765.00,97.92
764.00,97.91
763.00,97.90
762.00,97.88
761.00,97.84
760.00,97.81
759.00,97.79
758.00,97.76
757.00,97.72
756.00,97.67
755.00,97.63
754.00,97.58
753.00,97.53
752.00,97.47
751.00,97.41
750.00,97.35
749.00,97.26
748.00,97.18
747.00,97.10
746.00,97.02
745.00,96.89
744.00,96.75
743.00,96.60
742.00,96.42
741.00,96.16
740.00,95.86
739.00,95.49
738.00,94.98
737.00,94.17
736.00,92.88
735.00,90.67
734.00,87.02
733.00,81.93
732.00,76.53
731.00,72.82
730.00,72.24
729.00,74.63
728.00,78.37
727.00,81.66
726.00,83.52
725.00,83.79
724.00,82.51
723.00,79.38
722.00,74.11
721.00,67.44
720.00,61.73
719.00,59.69
718.00,62.16
717.00,67.62
716.00,73.71
715.00,78.83
714.00,82.60
713.00,85.31
712.00,87.31
711.00,88.83
710.00,90.02
709.00,91.03
708.00,91.88
707.00,92.56
706.00,93.13
705.00,93.65
704.00,94.09
703.00,94.45
702.00,94.75
701.00,95.04
700.00,95.30
699.00,95.50
698.00,95.66
697.00,95.84
696.00,96.01
695.00,96.13
694.00,96.21
693.00,96.30
692.00,96.38
691.00,96.42
690.00,96.45
689.00,96.52
688.00,96.60
687.00,96.65
686.00,96.68
685.00,96.73
684.00,96.79
683.00,96.83
682.00,96.88
681.00,96.95
680.00,97.01
679.00,97.02
678.00,97.00
677.00,97.02
676.00,97.07
675.00,97.10
674.00,97.12
673.00,97.16
672.00,97.20
671.00,97.22
670.00,97.25
669.00,97.32
668.00,97.41
667.00,97.41
666.00,97.36
665.00,97.33
664.00,97.33
663.00,97.30
662.00,97.27
661.00,97.28
660.00,97.31
659.00,97.31
658.00,97.30
657.00,97.33
656.00,97.38
655.00,97.40
654.00,97.39
653.00,97.39
652.00,97.40
651.00,97.41
650.00,97.39
