Created as New Dataset,PE postconsumer EDA plastic
cm-1,%T
4000.00,99.61
3999.00,99.61
3998.00,99.61
3997.00,99.61
3996.00,99.61
3995.00,99.61
3994.00,99.61
3993.00,99.61
3992.00,99.61
3991.00,99.61
3990.00,99.61
3989.00,99.61
3988.00,99.61
3987.00,99.61
3986.00,99.61
3985.00,99.61
3984.00,99.61
3983.00,99.61
3982.00,99.61
3981.00,99.60
3980.00,99.60
3979.00,99.59
3978.00,99.60
3977.00,99.60
3976.00,99.60
3975.00,99.60
3974.00,99.60
3973.00,99.60
3972.00,99.60
3971.00,99.60
3970.00,99.60
3969.00,99.60
3968.00,99.61
3967.00,99.61
3966.00,99.61
3965.00,99.61
3964.00,99.60
3963.00,99.60
3962.00,99.60
3961.00,99.60
3960.00,99.60
3959.00,99.60
3958.00,99.60
3957.00,99.60
3956.00,99.60
3955.00,99.60
3954.00,99.59
3953.00,99.59
3952.00,99.59
3951.00,99.59
3950.00,99.58
3949.00,99.58
3948.00,99.59
3947.00,99.59
3946.00,99.59
3945.00,99.59
3944.00,99.59
3943.00,99.59
3942.00,99.59
3941.00,99.59
3940.00,99.59
3939.00,99.60
3938.00,99.59
3937.00,99.59
3936.00,99.59
3935.00,99.59
3934.00,99.59
3933.00,99.58
3932.00,99.57
3931.00,99.57
3930.00,99.57
3929.00,99.57
3928.00,99.58
3927.00,99.58
3926.00,99.58
3925.00,99.58
3924.00,99.58
3923.00,99.58
3922.00,99.58
3921.00,99.58
3920.00,99.58
3919.00,99.57
3918.00,99.57
3917.00,99.57
3916.00,99.57
3915.00,99.57
3914.00,99.57
3913.00,99.57
3912.00,99.57
3911.00,99.57
3910.00,99.57
3909.00,99.57
3908.00,99.57
3907.00,99.57
3906.00,99.56
3905.00,99.56
3904.00,99.55
3903.00,99.54
3902.00,99.54
3901.00,99.54
3900.00,99.55
3899.00,99.55
3898.00,99.56
3897.00,99.56
3896.00,99.56
3895.00,99.56
3894.00,99.56
3893.00,99.56
3892.00,99.56
3891.00,99.56
3890.00,99.56
3889.00,99.56
3888.00,99.56
3887.00,99.56
3886.00,99.56
3885.00,99.56
3884.00,99.56
3883.00,99.55
3882.00,99.55
3881.00,99.55
3880.00,99.55
3879.00,99.55
3878.00,99.54
3877.00,99.54
3876.00,99.54
3875.00,99.55
3874.00,99.55
3873.00,99.55
3872.00,99.55
3871.00,99.55
3870.00,99.55
3869.00,99.55
3868.00,99.54
3867.00,99.54
3866.00,99.54
3865.00,99.54
3864.00,99.55
3863.00,99.56
3862.00,99.56
3861.00,99.56
3860.00,99.57
3859.00,99.57
3858.00,99.57
3857.00,99.56
3856.00,99.55
3855.00,99.54
3854.00,99.54
3853.00,99.53
3852.00,99.53
3851.00,99.54
3850.00,99.54
3849.00,99.55
3848.00,99.56
3847.00,99.56
3846.00,99.57
3845.00,99.57
3844.00,99.57
3843.00,99.56
3842.00,99.55
3841.00,99.55
3840.00,99.54
3839.00,99.54
3838.00,99.54
3837.00,99.54
3836.00,99.54
3835.00,99.54
3834.00,99.54
3833.00,99.54
3832.00,99.53
3831.00,99.53
3830.00,99.53
3829.00,99.53
3828.00,99.54
3827.00,99.54
3826.00,99.55
3825.00,99.54
3824.00,99.54
3823.00,99.53
3822.00,99.53
3821.00,99.53
3820.00,99.53
3819.00,99.53
3818.00,99.53
3817.00,99.54
3816.00,99.54
3815.00,99.54
3814.00,99.54
3813.00,99.54
3812.00,99.54
3811.00,99.54
3810.00,99.54
3809.00,99.53
3808.00,99.53
3807.00,99.54
3806.00,99.54
3805.00,99.54
3804.00,99.54
3803.00,99.54
3802.00,99.54
3801.00,99.54
3800.00,99.54
3799.00,99.54
3798.00,99.54
3797.00,99.54
3796.00,99.55
3795.00,99.55
3794.00,99.55
3793.00,99.55
3792.00,99.55
3791.00,99.56
3790.00,99.56
3789.00,99.56
3788.00,99.56
3787.00,99.56
3786.00,99.56
3785.00,99.56
3784.00,99.56
3783.00,99.56
3782.00,99.56
3781.00,99.56
3780.00,99.56
3779.00,99.56
3778.00,99.55
3777.00,99.55
3776.00,99.55
3775.00,99.55
3774.00,99.55
3773.00,99.55
3772.00,99.55
3771.00,99.55
3770.00,99.55
3769.00,99.55
3768.00,99.54
3767.00,99.54
3766.00,99.54
3765.00,99.54
3764.00,99.53
3763.00,99.53
3762.00,99.53
3761.00,99.53
3760.00,99.53
3759.00,99.53
3758.00,99.53
3757.00,99.53
3756.00,99.53
3755.00,99.52
3754.00,99.52
3753.00,99.52
3752.00,99.52
3751.00,99.52
3750.00,99.52
3749.00,99.52
3748.00,99.52
3747.00,99.52
3746.00,99.52
3745.00,99.53
3744.00,99.54
3743.00,99.54
3742.00,99.53
3741.00,99.53
3740.00,99.53
3739.00,99.53
3738.00,99.53
3737.00,99.53
3736.00,99.53
3735.00,99.53
3734.00,99.53
3733.00,99.53
3732.00,99.54
3731.00,99.54
3730.00,99.54
3729.00,99.54
3728.00,99.55
3727.00,99.55
3726.00,99.55
3725.00,99.55
3724.00,99.55
3723.00,99.55
3722.00,99.55
3721.00,99.55
3720.00,99.54
3719.00,99.54
3718.00,99.55
3717.00,99.55
3716.00,99.55
3715.00,99.54
3714.00,99.54
3713.00,99.53
3712.00,99.53
3711.00,99.52
3710.00,99.52
3709.00,99.53
3708.00,99.53
3707.00,99.53
3706.00,99.53
3705.00,99.53
3704.00,99.53
3703.00,99.53
3702.00,99.53
3701.00,99.53
3700.00,99.53
3699.00,99.53
3698.00,99.53
3697.00,99.53
3696.00,99.53
3695.00,99.53
3694.00,99.52
3693.00,99.52
3692.00,99.51
3691.00,99.52
3690.00,99.52
3689.00,99.52
3688.00,99.52
3687.00,99.53
3686.00,99.53
3685.00,99.53
3684.00,99.53
3683.00,99.53
3682.00,99.53
3681.00,99.53
3680.00,99.53
3679.00,99.53
3678.00,99.53
3677.00,99.52
3676.00,99.52
3675.00,99.52
3674.00,99.52
3673.00,99.51
3672.00,99.51
3671.00,99.50
3670.00,99.51
3669.00,99.51
3668.00,99.52
3667.00,99.52
3666.00,99.53
3665.00,99.53
3664.00,99.54
3663.00,99.54
3662.00,99.54
3661.00,99.53
3660.00,99.53
3659.00,99.52
3658.00,99.52
3657.00,99.51
3656.00,99.51
3655.00,99.51
3654.00,99.51
3653.00,99.51
3652.00,99.51
3651.00,99.50
3650.00,99.50
3649.00,99.49
3648.00,99.48
3647.00,99.48
3646.00,99.49
3645.00,99.50
3644.00,99.50
3643.00,99.51
3642.00,99.51
3641.00,99.51
3640.00,99.51
3639.00,99.51
3638.00,99.52
3637.00,99.52
3636.00,99.52
3635.00,99.52
3634.00,99.52
3633.00,99.52
3632.00,99.52
3631.00,99.52
3630.00,99.52
3629.00,99.52
3628.00,99.52
3627.00,99.52
3626.00,99.52
3625.00,99.52
3624.00,99.52
3623.00,99.52
3622.00,99.52
3621.00,99.51
3620.00,99.51
3619.00,99.50
3618.00,99.50
3617.00,99.50
3616.00,99.50
3615.00,99.50
3614.00,99.49
3613.00,99.49
3612.00,99.48
3611.00,99.47
3610.00,99.47
3609.00,99.46
3608.00,99.45
3607.00,99.45
3606.00,99.45
3605.00,99.45
3604.00,99.45
3603.00,99.45
3602.00,99.45
3601.00,99.46
3600.00,99.47
3599.00,99.48
3598.00,99.49
3597.00,99.50
3596.00,99.51
3595.00,99.51
3594.00,99.52
3593.00,99.53
3592.00,99.53
3591.00,99.53
3590.00,99.54
3589.00,99.54
3588.00,99.54
3587.00,99.55
3586.00,99.55
3585.00,99.55
3584.00,99.55
3583.00,99.56
3582.00,99.56
3581.00,99.56
3580.00,99.56
3579.00,99.55
3578.00,99.55
3577.00,99.55
3576.00,99.56
3575.00,99.56
3574.00,99.56
3573.00,99.56
3572.00,99.56
3571.00,99.56
3570.00,99.57
3569.00,99.57
3568.00,99.56
3567.00,99.56
3566.00,99.56
3565.00,99.56
3564.00,99.56
3563.00,99.57
3562.00,99.57
3561.00,99.57
3560.00,99.57
3559.00,99.57
3558.00,99.57
3557.00,99.57
3556.00,99.57
3555.00,99.57
3554.00,99.57
3553.00,99.56
3552.00,99.56
3551.00,99.56
3550.00,99.56
3549.00,99.56
3548.00,99.56
3547.00,99.56
3546.00,99.56
3545.00,99.55
3544.00,99.55
3543.00,99.55
3542.00,99.55
3541.00,99.55
3540.00,99.55
3539.00,99.55
3538.00,99.55
3537.00,99.56
3536.00,99.56
3535.00,99.56
3534.00,99.56
3533.00,99.56
3532.00,99.55
3531.00,99.55
3530.00,99.55
3529.00,99.56
3528.00,99.55
3527.00,99.55
3526.00,99.55
3525.00,99.55
3524.00,99.55
3523.00,99.56
3522.00,99.56
3521.00,99.56
3520.00,99.56
3519.00,99.56
3518.00,99.56
3517.00,99.55
3516.00,99.55
3515.00,99.55
3514.00,99.55
3513.00,99.55
3512.00,99.55
3511.00,99.55
3510.00,99.55
3509.00,99.54
3508.00,99.54
3507.00,99.54
3506.00,99.54
3505.00,99.55
3504.00,99.55
3503.00,99.56
3502.00,99.56
3501.00,99.56
3500.00,99.56
3499.00,99.56
3498.00,99.56
3497.00,99.56
3496.00,99.55
3495.00,99.55
3494.00,99.55
3493.00,99.55
3492.00,99.55
3491.00,99.55
3490.00,99.55
3489.00,99.55
3488.00,99.55
3487.00,99.55
3486.00,99.55
3485.00,99.54
3484.00,99.54
3483.00,99.53
3482.00,99.53
3481.00,99.53
3480.00,99.54
3479.00,99.54
3478.00,99.54
3477.00,99.54
3476.00,99.54
3475.00,99.54
3474.00,99.54
3473.00,99.55
3472.00,99.55
3471.00,99.54
3470.00,99.54
3469.00,99.54
3468.00,99.53
3467.00,99.53
3466.00,99.53
3465.00,99.54
3464.00,99.54
3463.00,99.54
3462.00,99.54
3461.00,99.53
3460.00,99.53
3459.00,99.53
3458.00,99.53
3457.00,99.53
3456.00,99.53
3455.00,99.53
3454.00,99.53
3453.00,99.53
3452.00,99.53
3451.00,99.53
3450.00,99.53
3449.00,99.52
3448.00,99.52
3447.00,99.52
3446.00,99.52
3445.00,99.52
3444.00,99.52
3443.00,99.53
3442.00,99.53
3441.00,99.53
3440.00,99.53
3439.00,99.53
3438.00,99.53
3437.00,99.52
3436.00,99.51
3435.00,99.51
3434.00,99.51
3433.00,99.51
3432.00,99.52
3431.00,99.52
3430.00,99.52
3429.00,99.52
3428.00,99.52
3427.00,99.51
3426.00,99.51
3425.00,99.52
3424.00,99.52
3423.00,99.52
3422.00,99.52
3421.00,99.52
3420.00,99.52
3419.00,99.52
3418.00,99.52
3417.00,99.53
3416.00,99.53
3415.00,99.53
3414.00,99.53
3413.00,99.52
3412.00,99.52
3411.00,99.51
3410.00,99.51
3409.00,99.51
3408.00,99.51
3407.00,99.51
3406.00,99.51
3405.00,99.52
3404.00,99.52
3403.00,99.52
3402.00,99.52
3401.00,99.52
3400.00,99.52
3399.00,99.52
3398.00,99.52
3397.00,99.53
3396.00,99.53
3395.00,99.53
3394.00,99.53
3393.00,99.52
3392.00,99.52
3391.00,99.52
3390.00,99.51
3389.00,99.51
3388.00,99.51
3387.00,99.51
3386.00,99.51
3385.00,99.51
3384.00,99.51
3383.00,99.51
3382.00,99.51
3381.00,99.51
3380.00,99.50
3379.00,99.50
3378.00,99.50
3377.00,99.50
3376.00,99.50
3375.00,99.50
3374.00,99.50
3373.00,99.51
3372.00,99.51
3371.00,99.50
3370.00,99.50
3369.00,99.50
3368.00,99.51
3367.00,99.51
3366.00,99.52
3365.00,99.52
3364.00,99.52
3363.00,99.52
3362.00,99.52
3361.00,99.52
3360.00,99.51
3359.00,99.51
3358.00,99.51
3357.00,99.51
3356.00,99.51
3355.00,99.51
3354.00,99.52
3353.00,99.52
3352.00,99.52
3351.00,99.52
3350.00,99.52
3349.00,99.52
3348.00,99.52
3347.00,99.52
3346.00,99.52
3345.00,99.52
3344.00,99.52
3343.00,99.51
3342.00,99.52
3341.00,99.52
3340.00,99.52
3339.00,99.52
3338.00,99.52
3337.00,99.52
3336.00,99.52
3335.00,99.52
3334.00,99.52
3333.00,99.52
3332.00,99.52
3331.00,99.52
3330.00,99.52
3329.00,99.52
3328.00,99.52
3327.00,99.52
3326.00,99.53
3325.00,99.53
3324.00,99.53
3323.00,99.53
3322.00,99.52
3321.00,99.52
3320.00,99.52
3319.00,99.52
3318.00,99.53
3317.00,99.53
3316.00,99.53
3315.00,99.53
3314.00,99.53
3313.00,99.53
3312.00,99.53
3311.00,99.53
3310.00,99.53
3309.00,99.53
3308.00,99.53
3307.00,99.53
3306.00,99.53
3305.00,99.53
3304.00,99.53
3303.00,99.53
3302.00,99.53
3301.00,99.53
3300.00,99.53
3299.00,99.53
3298.00,99.53
3297.00,99.52
3296.00,99.52
3295.00,99.53
3294.00,99.53
3293.00,99.53
3292.00,99.52
3291.00,99.52
3290.00,99.53
3289.00,99.53
3288.00,99.53
3287.00,99.53
3286.00,99.53
3285.00,99.53
3284.00,99.53
3283.00,99.53
3282.00,99.53
3281.00,99.53
3280.00,99.53
3279.00,99.53
3278.00,99.53
3277.00,99.53
3276.00,99.53
3275.00,99.53
3274.00,99.53
3273.00,99.53
3272.00,99.52
3271.00,99.52
3270.00,99.52
3269.00,99.52
3268.00,99.52
3267.00,99.52
3266.00,99.53
3265.00,99.53
3264.00,99.53
3263.00,99.54
3262.00,99.54
3261.00,99.54
3260.00,99.54
3259.00,99.54
3258.00,99.54
3257.00,99.54
3256.00,99.54
3255.00,99.54
3254.00,99.54
3253.00,99.54
3252.00,99.54
3251.00,99.54
3250.00,99.54
3249.00,99.54
3248.00,99.54
3247.00,99.54
3246.00,99.54
3245.00,99.54
3244.00,99.54
3243.00,99.54
3242.00,99.54
3241.00,99.54
3240.00,99.54
3239.00,99.54
3238.00,99.54
3237.00,99.54
3236.00,99.54
3235.00,99.54
3234.00,99.54
3233.00,99.55
3232.00,99.55
3231.00,99.54
3230.00,99.54
3229.00,99.54
3228.00,99.54
3227.00,99.54
3226.00,99.54
3225.00,99.54
3224.00,99.54
3223.00,99.54
3222.00,99.54
3221.00,99.54
3220.00,99.54
3219.00,99.54
3218.00,99.55
3217.00,99.55
3216.00,99.55
3215.00,99.55
3214.00,99.56
3213.00,99.55
3212.00,99.55
3211.00,99.55
3210.00,99.55
3209.00,99.55
3208.00,99.54
3207.00,99.54
3206.00,99.54
3205.00,99.54
3204.00,99.54
3203.00,99.54
3202.00,99.54
3201.00,99.54
3200.00,99.54
3199.00,99.54
3198.00,99.54
3197.00,99.55
3196.00,99.55
3195.00,99.56
3194.00,99.56
3193.00,99.55
3192.00,99.55
3191.00,99.55
3190.00,99.55
3189.00,99.55
3188.00,99.55
3187.00,99.55
3186.00,99.55
3185.00,99.55
3184.00,99.55
3183.00,99.55
3182.00,99.55
3181.00,99.55
3180.00,99.55
3179.00,99.55
3178.00,99.55
3177.00,99.55
3176.00,99.55
3175.00,99.55
3174.00,99.55
3173.00,99.55
3172.00,99.55
3171.00,99.55
3170.00,99.54
3169.00,99.54
3168.00,99.54
3167.00,99.55
3166.00,99.55
3165.00,99.55
3164.00,99.55
3163.00,99.55
3162.00,99.55
3161.00,99.55
3160.00,99.55
3159.00,99.55
3158.00,99.55
3157.00,99.55
3156.00,99.55
3155.00,99.55
3154.00,99.55
3153.00,99.55
3152.00,99.55
3151.00,99.55
3150.00,99.55
3149.00,99.56
3148.00,99.55
3147.00,99.55
3146.00,99.55
3145.00,99.55
3144.00,99.54
3143.00,99.54
3142.00,99.54
3141.00,99.54
3140.00,99.54
3139.00,99.54
3138.00,99.54
3137.00,99.54
3136.00,99.54
3135.00,99.54
3134.00,99.54
3133.00,99.54
3132.00,99.54
3131.00,99.54
3130.00,99.54
3129.00,99.54
3128.00,99.53
3127.00,99.53
3126.00,99.53
3125.00,99.53
3124.00,99.53
3123.00,99.53
3122.00,99.52
3121.00,99.52
3120.00,99.52
3119.00,99.52
3118.00,99.52
3117.00,99.51
3116.00,99.51
3115.00,99.51
3114.00,99.50
3113.00,99.50
3112.00,99.50
3111.00,99.50
3110.00,99.49
3109.00,99.49
3108.00,99.48
3107.00,99.48
3106.00,99.47
3105.00,99.47
3104.00,99.46
3103.00,99.45
3102.00,99.45
3101.00,99.44
3100.00,99.44
3099.00,99.43
3098.00,99.43
3097.00,99.42
3096.00,99.42
3095.00,99.41
3094.00,99.40
3093.00,99.40
3092.00,99.39
3091.00,99.38
3090.00,99.38
3089.00,99.37
3088.00,99.37
3087.00,99.37
3086.00,99.37
3085.00,99.36
3084.00,99.36
3083.00,99.35
3082.00,99.35
3081.00,99.34
3080.00,99.34
3079.00,99.33
3078.00,99.32
3077.00,99.32
3076.00,99.32
3075.00,99.32
3074.00,99.32
3073.00,99.32
3072.00,99.32
3071.00,99.32
3070.00,99.31
3069.00,99.31
3068.00,99.31
3067.00,99.30
3066.00,99.30
3065.00,99.30
3064.00,99.29
3063.00,99.30
3062.00,99.30
3061.00,99.29
3060.00,99.29
3059.00,99.28
3058.00,99.28
3057.00,99.27
3056.00,99.27
3055.00,99.27
3054.00,99.27
3053.00,99.26
3052.00,99.26
3051.00,99.25
3050.00,99.25
3049.00,99.25
3048.00,99.24
3047.00,99.24
3046.00,99.23
3045.00,99.22
3044.00,99.22
3043.00,99.21
3042.00,99.21
3041.00,99.20
3040.00,99.19
3039.00,99.19
3038.00,99.18
3037.00,99.17
3036.00,99.17
3035.00,99.16
3034.00,99.16
3033.00,99.16
3032.00,99.15
3031.00,99.15
3030.00,99.14
3029.00,99.14
3028.00,99.13
3027.00,99.13
3026.00,99.13
3025.00,99.12
3024.00,99.12
3023.00,99.12
3022.00,99.12
3021.00,99.11
3020.00,99.10
3019.00,99.10
3018.00,99.09
3017.00,99.09
3016.00,99.09
3015.00,99.09
3014.00,99.08
3013.00,99.08
3012.00,99.08
3011.00,99.08
3010.00,99.07
3009.00,99.06
3008.00,99.05
3007.00,99.04
3006.00,99.03
3005.00,99.02
3004.00,99.01
3003.00,99.00
3002.00,99.00
3001.00,98.99
3000.00,98.98
2999.00,98.97
2998.00,98.96
2997.00,98.95
2996.00,98.94
2995.00,98.94
2994.00,98.93
2993.00,98.92
2992.00,98.91
2991.00,98.89
2990.00,98.88
2989.00,98.86
2988.00,98.84
2987.00,98.83
2986.00,98.82
2985.00,98.80
2984.00,98.78
2983.00,98.75
2982.00,98.73
2981.00,98.71
2980.00,98.68
2979.00,98.66
2978.00,98.63
2977.00,98.60
2976.00,98.57
2975.00,98.54
2974.00,98.51
2973.00,98.48
2972.00,98.44
2971.00,98.40
2970.00,98.36
2969.00,98.31
2968.00,98.26
2967.00,98.22
2966.00,98.16
2965.00,98.11
2964.00,98.05
2963.00,97.98
2962.00,97.91
2961.00,97.83
2960.00,97.75
2959.00,97.66
2958.00,97.56
2957.00,97.45
2956.00,97.34
2955.00,97.22
2954.00,97.09
2953.00,96.95
2952.00,96.79
2951.00,96.62
2950.00,96.43
2949.00,96.21
2948.00,95.96
2947.00,95.68
2946.00,95.36
2945.00,95.00
2944.00,94.60
2943.00,94.15
2942.00,93.65
2941.00,93.11
2940.00,92.52
2939.00,91.88
2938.00,91.18
2937.00,90.43
2936.00,89.62
2935.00,88.75
2934.00,87.81
2933.00,86.79
2932.00,85.70
2931.00,84.52
2930.00,83.25
2929.00,81.87
2928.00,80.39
2927.00,78.77
2926.00,77.02
2925.00,75.11
2924.00,73.07
2923.00,70.92
2922.00,68.68
2921.00,66.42
2920.00,64.18
2919.00,62.07
2918.00,60.21
2917.00,58.74
2916.00,57.83
2915.00,57.56
2914.00,57.94
2913.00,58.90
2912.00,60.28
2911.00,61.92
2910.00,63.66
2909.00,65.40
2908.00,67.06
2907.00,68.58
2906.00,69.95
2905.00,71.17
2904.00,72.25
2903.00,73.21
2902.00,74.06
2901.00,74.83
2900.00,75.52
2899.00,76.17
2898.00,76.79
2897.00,77.39
2896.00,77.99
2895.00,78.58
2894.00,79.18
2893.00,79.79
2892.00,80.41
2891.00,81.04
2890.00,81.68
2889.00,82.33
2888.00,82.98
2887.00,83.63
2886.00,84.28
2885.00,84.93
2884.00,85.58
2883.00,86.23
2882.00,86.87
2881.00,87.52
2880.00,88.17
2879.00,88.82
2878.00,89.44
2877.00,90.04
2876.00,90.58
2875.00,91.07
2874.00,91.48
2873.00,91.82
2872.00,92.07
2871.00,92.25
2870.00,92.36
2869.00,92.38
2868.00,92.32
2867.00,92.18
2866.00,91.94
2865.00,91.60
2864.00,91.14
2863.00,90.54
2862.00,89.77
2861.00,88.82
2860.00,87.65
2859.00,86.22
2858.00,84.49
2857.00,82.44
2856.00,80.02
2855.00,77.23
2854.00,74.10
2853.00,70.74
2852.00,67.35
2851.00,64.25
2850.00,61.79
2849.00,60.35
2848.00,60.13
2847.00,61.12
2846.00,63.12
2845.00,65.79
2844.00,68.79
2843.00,71.83
2842.00,74.71
2841.00,77.33
2840.00,79.65
2839.00,81.65
2838.00,83.36
2837.00,84.83
2836.00,86.09
2835.00,87.18
2834.00,88.13
2833.00,88.95
2832.00,89.67
2831.00,90.31
2830.00,90.88
2829.00,91.39
2828.00,91.85
2827.00,92.27
2826.00,92.64
2825.00,92.98
2824.00,93.30
2823.00,93.58
2822.00,93.85
2821.00,94.09
2820.00,94.32
2819.00,94.53
2818.00,94.73
2817.00,94.91
2816.00,95.08
2815.00,95.23
2814.00,95.38
2813.00,95.52
2812.00,95.65
2811.00,95.78
2810.00,95.90
2809.00,96.01
2808.00,96.12
2807.00,96.22
2806.00,96.32
2805.00,96.41
2804.00,96.49
2803.00,96.57
2802.00,96.65
2801.00,96.72
2800.00,96.80
2799.00,96.87
2798.00,96.93
2797.00,97.00
2796.00,97.07
2795.00,97.13
2794.00,97.19
2793.00,97.25
2792.00,97.30
2791.00,97.36
2790.00,97.42
2789.00,97.48
2788.00,97.53
2787.00,97.59
2786.00,97.64
2785.00,97.69
2784.00,97.73
2783.00,97.78
2782.00,97.82
2781.00,97.87
2780.00,97.91
2779.00,97.95
2778.00,97.98
2777.00,98.02
2776.00,98.05
2775.00,98.08
2774.00,98.11
2773.00,98.13
2772.00,98.16
2771.00,98.18
2770.00,98.19
2769.00,98.22
2768.00,98.24
2767.00,98.26
2766.00,98.29
2765.00,98.31
2764.00,98.32
2763.00,98.34
2762.00,98.35
2761.00,98.37
2760.00,98.38
2759.00,98.39
2758.00,98.41
2757.00,98.42
2756.00,98.43
2755.00,98.44
2754.00,98.46
2753.00,98.47
2752.00,98.47
2751.00,98.48
2750.00,98.48
2749.00,98.48
2748.00,98.49
2747.00,98.49
2746.00,98.49
2745.00,98.50
2744.00,98.50
2743.00,98.50
2742.00,98.50
2741.00,98.51
2740.00,98.51
2739.00,98.52
2738.00,98.52
2737.00,98.53
2736.00,98.54
2735.00,98.55
2734.00,98.56
2733.00,98.57
2732.00,98.58
2731.00,98.59
2730.00,98.60
2729.00,98.61
2728.00,98.62
2727.00,98.63
2726.00,98.64
2725.00,98.65
2724.00,98.65
2723.00,98.66
2722.00,98.66
2721.00,98.67
2720.00,98.68
2719.00,98.68
2718.00,98.69
2717.00,98.70
2716.00,98.71
2715.00,98.71
2714.00,98.72
2713.00,98.73
2712.00,98.74
2711.00,98.74
2710.00,98.75
2709.00,98.75
2708.00,98.75
2707.00,98.76
2706.00,98.76
2705.00,98.77
2704.00,98.78
2703.00,98.78
2702.00,98.79
2701.00,98.80
2700.00,98.80
2699.00,98.81
2698.00,98.81
2697.00,98.82
2696.00,98.82
2695.00,98.82
2694.00,98.82
2693.00,98.82
2692.00,98.82
2691.00,98.82
2690.00,98.82
2689.00,98.82
2688.00,98.81
2687.00,98.81
2686.00,98.81
2685.00,98.81
2684.00,98.80
2683.00,98.80
2682.00,98.80
2681.00,98.79
2680.00,98.79
2679.00,98.78
2678.00,98.78
2677.00,98.77
2676.00,98.76
2675.00,98.76
2674.00,98.75
2673.00,98.75
2672.00,98.74
2671.00,98.73
2670.00,98.72
2669.00,98.71
2668.00,98.69
2667.00,98.68
2666.00,98.67
2665.00,98.66
2664.00,98.65
2663.00,98.64
2662.00,98.63
2661.00,98.62
2660.00,98.61
2659.00,98.61
2658.00,98.61
2657.00,98.60
2656.00,98.60
2655.00,98.60
2654.00,98.60
2653.00,98.60
2652.00,98.60
2651.00,98.60
2650.00,98.60
2649.00,98.60
2648.00,98.59
2647.00,98.59
2646.00,98.58
2645.00,98.58
2644.00,98.57
2643.00,98.57
2642.00,98.56
2641.00,98.56
2640.00,98.55
2639.00,98.55
2638.00,98.54
2637.00,98.54
2636.00,98.53
2635.00,98.53
2634.00,98.54
2633.00,98.54
2632.00,98.55
2631.00,98.57
2630.00,98.58
2629.00,98.59
2628.00,98.61
2627.00,98.62
2626.00,98.63
2625.00,98.65
2624.00,98.66
2623.00,98.67
2622.00,98.68
2621.00,98.70
2620.00,98.71
2619.00,98.72
2618.00,98.73
2617.00,98.74
2616.00,98.75
2615.00,98.76
2614.00,98.77
2613.00,98.79
2612.00,98.79
2611.00,98.80
2610.00,98.81
2609.00,98.82
2608.00,98.83
2607.00,98.83
2606.00,98.84
2605.00,98.85
2604.00,98.85
2603.00,98.86
2602.00,98.87
2601.00,98.87
2600.00,98.88
2599.00,98.89
2598.00,98.90
2597.00,98.90
2596.00,98.91
2595.00,98.92
2594.00,98.92
2593.00,98.93
2592.00,98.94
2591.00,98.95
2590.00,98.96
2589.00,98.97
2588.00,98.97
2587.00,98.98
2586.00,98.98
2585.00,98.99
2584.00,98.99
2583.00,98.99
2582.00,98.99
2581.00,99.00
2580.00,99.00
2579.00,99.01
2578.00,99.02
2577.00,99.03
2576.00,99.03
2575.00,99.03
2574.00,99.04
2573.00,99.04
2572.00,99.04
2571.00,99.05
2570.00,99.06
2569.00,99.06
2568.00,99.06
2567.00,99.06
2566.00,99.06
2565.00,99.06
2564.00,99.06
2563.00,99.07
2562.00,99.08
2561.00,99.08
2560.00,99.09
2559.00,99.10
2558.00,99.10
2557.00,99.09
2556.00,99.09
2555.00,99.09
2554.00,99.09
2553.00,99.09
2552.00,99.10
2551.00,99.10
2550.00,99.11
2549.00,99.11
2548.00,99.11
2547.00,99.12
2546.00,99.12
2545.00,99.13
2544.00,99.13
2543.00,99.14
2542.00,99.15
2541.00,99.16
2540.00,99.16
2539.00,99.17
2538.00,99.17
2537.00,99.17
2536.00,99.17
2535.00,99.17
2534.00,99.17
2533.00,99.17
2532.00,99.16
2531.00,99.16
2530.00,99.16
2529.00,99.16
2528.00,99.16
2527.00,99.16
2526.00,99.17
2525.00,99.17
2524.00,99.18
2523.00,99.18
2522.00,99.18
2521.00,99.18
2520.00,99.18
2519.00,99.18
2518.00,99.19
2517.00,99.20
2516.00,99.20
2515.00,99.21
2514.00,99.22
2513.00,99.22
2512.00,99.22
2511.00,99.22
2510.00,99.22
2509.00,99.22
2508.00,99.22
2507.00,99.21
2506.00,99.21
2505.00,99.21
2504.00,99.22
2503.00,99.22
2502.00,99.22
2501.00,99.23
2500.00,99.23
2499.00,99.23
2498.00,99.23
2497.00,99.23
2496.00,99.23
2495.00,99.23
2494.00,99.23
2493.00,99.24
2492.00,99.24
2491.00,99.24
2490.00,99.24
2489.00,99.24
2488.00,99.24
2487.00,99.25
2486.00,99.25
2485.00,99.25
2484.00,99.24
2483.00,99.24
2482.00,99.23
2481.00,99.23
2480.00,99.24
2479.00,99.24
2478.00,99.24
2477.00,99.24
2476.00,99.24
2475.00,99.24
2474.00,99.24
2473.00,99.24
2472.00,99.25
2471.00,99.25
2470.00,99.26
2469.00,99.27
2468.00,99.27
2467.00,99.27
2466.00,99.27
2465.00,99.27
2464.00,99.27
2463.00,99.26
2462.00,99.26
2461.00,99.26
2460.00,99.26
2459.00,99.26
2458.00,99.26
2457.00,99.26
2456.00,99.25
2455.00,99.25
2454.00,99.25
2453.00,99.25
2452.00,99.26
2451.00,99.26
2450.00,99.26
2449.00,99.26
2448.00,99.26
2447.00,99.26
2446.00,99.27
2445.00,99.27
2444.00,99.27
2443.00,99.27
2442.00,99.27
2441.00,99.27
2440.00,99.27
2439.00,99.27
2438.00,99.27
2437.00,99.27
2436.00,99.27
2435.00,99.27
2434.00,99.27
2433.00,99.27
2432.00,99.27
2431.00,99.27
2430.00,99.27
2429.00,99.27
2428.00,99.27
2427.00,99.27
2426.00,99.27
2425.00,99.26
2424.00,99.26
2423.00,99.26
2422.00,99.26
2421.00,99.26
2420.00,99.26
2419.00,99.26
2418.00,99.26
2417.00,99.26
2416.00,99.26
2415.00,99.26
2414.00,99.26
2413.00,99.26
2412.00,99.26
2411.00,99.26
2410.00,99.27
2409.00,99.27
2408.00,99.28
2407.00,99.29
2406.00,99.30
2405.00,99.31
2404.00,99.31
2403.00,99.31
2402.00,99.31
2401.00,99.31
2400.00,99.32
2399.00,99.32
2398.00,99.32
2397.00,99.32
2396.00,99.32
2395.00,99.32
2394.00,99.32
2393.00,99.32
2392.00,99.32
2391.00,99.32
2390.00,99.32
2389.00,99.32
2388.00,99.31
2387.00,99.31
2386.00,99.31
2385.00,99.30
2384.00,99.30
2383.00,99.30
2382.00,99.30
2381.00,99.31
2380.00,99.31
2379.00,99.32
2378.00,99.32
2377.00,99.33
2376.00,99.33
2375.00,99.34
2374.00,99.34
2373.00,99.33
2372.00,99.32
2371.00,99.32
2370.00,99.32
2369.00,99.32
2368.00,99.31
2367.00,99.30
2366.00,99.29
2365.00,99.28
2364.00,99.27
2363.00,99.25
2362.00,99.24
2361.00,99.22
2360.00,99.21
2359.00,99.21
2358.00,99.21
2357.00,99.22
2356.00,99.22
2355.00,99.22
2354.00,99.22
2353.00,99.21
2352.00,99.21
2351.00,99.20
2350.00,99.20
2349.00,99.19
2348.00,99.18
2347.00,99.18
2346.00,99.17
2345.00,99.17
2344.00,99.16
2343.00,99.14
2342.00,99.12
2341.00,99.11
2340.00,99.10
2339.00,99.10
2338.00,99.10
2337.00,99.10
2336.00,99.09
2335.00,99.09
2334.00,99.09
2333.00,99.09
2332.00,99.09
2331.00,99.09
2330.00,99.09
2329.00,99.07
2328.00,99.04
2327.00,98.99
2326.00,98.94
2325.00,98.89
2324.00,98.86
2323.00,98.86
2322.00,98.87
2321.00,98.90
2320.00,98.93
2319.00,98.95
2318.00,98.97
2317.00,98.98
2316.00,98.99
2315.00,98.99
2314.00,99.00
2313.00,99.01
2312.00,99.02
2311.00,99.02
2310.00,99.03
2309.00,99.03
2308.00,99.03
2307.00,99.03
2306.00,99.03
2305.00,99.04
2304.00,99.04
2303.00,99.05
2302.00,99.05
2301.00,99.05
2300.00,99.05
2299.00,99.05
2298.00,99.05
2297.00,99.05
2296.00,99.05
2295.00,99.06
2294.00,99.05
2293.00,99.05
2292.00,99.04
2291.00,99.02
2290.00,99.01
2289.00,98.99
2288.00,98.97
2287.00,98.96
2286.00,98.96
2285.00,98.97
2284.00,98.97
2283.00,98.98
2282.00,98.99
2281.00,98.99
2280.00,99.00
2279.00,99.00
2278.00,99.01
2277.00,99.01
2276.00,99.02
2275.00,99.03
2274.00,99.04
2273.00,99.05
2272.00,99.06
2271.00,99.08
2270.00,99.08
2269.00,99.08
2268.00,99.08
2267.00,99.08
2266.00,99.09
2265.00,99.10
2264.00,99.11
2263.00,99.11
2262.00,99.10
2261.00,99.09
2260.00,99.09
2259.00,99.08
2258.00,99.08
2257.00,99.08
2256.00,99.08
2255.00,99.09
2254.00,99.11
2253.00,99.12
2252.00,99.12
2251.00,99.11
2250.00,99.10
2249.00,99.10
2248.00,99.10
2247.00,99.11
2246.00,99.12
2245.00,99.12
2244.00,99.11
2243.00,99.10
2242.00,99.10
2241.00,99.09
2240.00,99.08
2239.00,99.08
2238.00,99.08
2237.00,99.08
2236.00,99.09
2235.00,99.09
2234.00,99.10
2233.00,99.11
2232.00,99.12
2231.00,99.13
2230.00,99.13
2229.00,99.13
2228.00,99.13
2227.00,99.12
2226.00,99.11
2225.00,99.11
2224.00,99.10
2223.00,99.10
2222.00,99.10
2221.00,99.09
2220.00,99.09
2219.00,99.09
2218.00,99.10
2217.00,99.10
2216.00,99.10
2215.00,99.11
2214.00,99.10
2213.00,99.10
2212.00,99.10
2211.00,99.11
2210.00,99.12
2209.00,99.11
2208.00,99.11
2207.00,99.10
2206.00,99.10
2205.00,99.09
2204.00,99.09
2203.00,99.08
2202.00,99.08
2201.00,99.09
2200.00,99.09
2199.00,99.09
2198.00,99.08
2197.00,99.07
2196.00,99.06
2195.00,99.05
2194.00,99.05
2193.00,99.04
2192.00,99.03
2191.00,99.03
2190.00,99.03
2189.00,99.02
2188.00,99.01
2187.00,99.01
2186.00,99.00
2185.00,98.99
2184.00,98.99
2183.00,99.00
2182.00,99.02
2181.00,99.04
2180.00,99.04
2179.00,99.04
2178.00,99.04
2177.00,99.03
2176.00,99.03
2175.00,99.05
2174.00,99.05
2173.00,99.05
2172.00,99.03
2171.00,99.00
2170.00,98.97
2169.00,98.94
2168.00,98.90
2167.00,98.88
2166.00,98.87
2165.00,98.85
2164.00,98.81
2163.00,98.78
2162.00,98.75
2161.00,98.77
2160.00,98.87
2159.00,99.05
2158.00,99.23
2157.00,99.36
2156.00,99.41
2155.00,99.42
2154.00,99.41
2153.00,99.39
2152.00,99.36
2151.00,99.33
2150.00,99.31
2149.00,99.29
2148.00,99.29
2147.00,99.30
2146.00,99.31
2145.00,99.31
2144.00,99.30
2143.00,99.29
2142.00,99.29
2141.00,99.29
2140.00,99.30
2139.00,99.30
2138.00,99.31
2137.00,99.33
2136.00,99.35
2135.00,99.39
2134.00,99.43
2133.00,99.45
2132.00,99.45
2131.00,99.44
2130.00,99.42
2129.00,99.39
2128.00,99.38
2127.00,99.37
2126.00,99.36
2125.00,99.34
2124.00,99.32
2123.00,99.30
2122.00,99.28
2121.00,99.27
2120.00,99.26
2119.00,99.25
2118.00,99.25
2117.00,99.23
2116.00,99.22
2115.00,99.19
2114.00,99.17
2113.00,99.15
2112.00,99.14
2111.00,99.13
2110.00,99.14
2109.00,99.14
2108.00,99.15
2107.00,99.15
2106.00,99.16
2105.00,99.16
2104.00,99.16
2103.00,99.16
2102.00,99.16
2101.00,99.16
2100.00,99.15
2099.00,99.14
2098.00,99.15
2097.00,99.17
2096.00,99.20
2095.00,99.22
2094.00,99.23
2093.00,99.23
2092.00,99.22
2091.00,99.20
2090.00,99.19
2089.00,99.17
2088.00,99.15
2087.00,99.13
2086.00,99.12
2085.00,99.11
2084.00,99.11
2083.00,99.11
2082.00,99.11
2081.00,99.10
2080.00,99.09
2079.00,99.09
2078.00,99.09
2077.00,99.09
2076.00,99.08
2075.00,99.08
2074.00,99.09
2073.00,99.09
2072.00,99.10
2071.00,99.10
2070.00,99.10
2069.00,99.09
2068.00,99.09
2067.00,99.09
2066.00,99.09
2065.00,99.10
2064.00,99.10
2063.00,99.09
2062.00,99.08
2061.00,99.07
2060.00,99.07
2059.00,99.06
2058.00,99.06
2057.00,99.05
2056.00,99.05
2055.00,99.05
2054.00,99.04
2053.00,99.01
2052.00,98.94
2051.00,98.87
2050.00,98.84
2049.00,98.84
2048.00,98.88
2047.00,98.91
2046.00,98.93
2045.00,98.94
2044.00,98.94
2043.00,98.94
2042.00,98.94
2041.00,98.92
2040.00,98.89
2039.00,98.87
2038.00,98.86
2037.00,98.86
2036.00,98.87
2035.00,98.89
2034.00,98.92
2033.00,98.94
2032.00,98.95
2031.00,98.95
2030.00,98.94
2029.00,98.94
2028.00,98.94
2027.00,98.94
2026.00,98.95
2025.00,98.95
2024.00,98.94
2023.00,98.94
2022.00,98.93
2021.00,98.93
2020.00,98.92
2019.00,98.92
2018.00,98.93
2017.00,98.94
2016.00,98.95
2015.00,98.95
2014.00,98.93
2013.00,98.90
2012.00,98.89
2011.00,98.89
2010.00,98.92
2009.00,98.96
2008.00,99.01
2007.00,99.06
2006.00,99.11
2005.00,99.14
2004.00,99.14
2003.00,99.14
2002.00,99.13
2001.00,99.12
2000.00,99.10
1999.00,99.09
1998.00,99.08
1997.00,99.07
1996.00,99.06
1995.00,99.05
1994.00,99.03
1993.00,99.02
1992.00,99.01
1991.00,99.01
1990.00,99.02
1989.00,99.01
1988.00,99.01
1987.00,99.01
1986.00,99.00
1985.00,98.98
1984.00,98.94
1983.00,98.90
1982.00,98.86
1981.00,98.80
1980.00,98.76
1979.00,98.77
1978.00,98.84
1977.00,98.93
1976.00,99.01
1975.00,99.06
1974.00,99.09
1973.00,99.10
1972.00,99.12
1971.00,99.13
1970.00,99.14
1969.00,99.14
1968.00,99.13
1967.00,99.12
1966.00,99.11
1965.00,99.11
1964.00,99.11
1963.00,99.12
1962.00,99.15
1961.00,99.17
1960.00,99.20
1959.00,99.22
1958.00,99.23
1957.00,99.22
1956.00,99.21
1955.00,99.20
1954.00,99.19
1953.00,99.17
1952.00,99.16
1951.00,99.16
1950.00,99.17
1949.00,99.17
1948.00,99.18
1947.00,99.19
1946.00,99.19
1945.00,99.19
1944.00,99.19
1943.00,99.19
1942.00,99.19
1941.00,99.19
1940.00,99.19
1939.00,99.19
1938.00,99.19
1937.00,99.19
1936.00,99.19
1935.00,99.19
1934.00,99.19
1933.00,99.20
1932.00,99.20
1931.00,99.20
1930.00,99.20
1929.00,99.19
1928.00,99.19
1927.00,99.19
1926.00,99.19
1925.00,99.19
1924.00,99.19
1923.00,99.19
1922.00,99.19
1921.00,99.18
1920.00,99.16
1919.00,99.16
1918.00,99.15
1917.00,99.15
1916.00,99.14
1915.00,99.14
1914.00,99.14
1913.00,99.14
1912.00,99.14
1911.00,99.14
1910.00,99.14
1909.00,99.15
1908.00,99.14
1907.00,99.14
1906.00,99.13
1905.00,99.12
1904.00,99.12
1903.00,99.11
1902.00,99.10
1901.00,99.10
1900.00,99.10
1899.00,99.10
1898.00,99.10
1897.00,99.10
1896.00,99.11
1895.00,99.11
1894.00,99.12
1893.00,99.12
1892.00,99.12
1891.00,99.12
1890.00,99.13
1889.00,99.14
1888.00,99.15
1887.00,99.16
1886.00,99.17
1885.00,99.18
1884.00,99.19
1883.00,99.20
1882.00,99.20
1881.00,99.20
1880.00,99.20
1879.00,99.20
1878.00,99.20
1877.00,99.21
1876.00,99.21
1875.00,99.22
1874.00,99.22
1873.00,99.23
1872.00,99.23
1871.00,99.22
1870.00,99.22
1869.00,99.21
1868.00,99.21
1867.00,99.22
1866.00,99.22
1865.00,99.22
1864.00,99.22
1863.00,99.22
1862.00,99.22
1861.00,99.22
1860.00,99.23
1859.00,99.23
1858.00,99.24
1857.00,99.24
1856.00,99.24
1855.00,99.23
1854.00,99.24
1853.00,99.23
1852.00,99.23
1851.00,99.23
1850.00,99.24
1849.00,99.24
1848.00,99.23
1847.00,99.23
1846.00,99.24
1845.00,99.24
1844.00,99.25
1843.00,99.25
1842.00,99.25
1841.00,99.24
1840.00,99.24
1839.00,99.24
1838.00,99.24
1837.00,99.24
1836.00,99.23
1835.00,99.23
1834.00,99.23
1833.00,99.23
1832.00,99.23
1831.00,99.23
1830.00,99.23
1829.00,99.22
1828.00,99.21
1827.00,99.21
1826.00,99.20
1825.00,99.20
1824.00,99.19
1823.00,99.19
1822.00,99.19
1821.00,99.19
1820.00,99.20
1819.00,99.22
1818.00,99.23
1817.00,99.24
1816.00,99.24
1815.00,99.24
1814.00,99.23
1813.00,99.22
1812.00,99.22
1811.00,99.22
1810.00,99.22
1809.00,99.22
1808.00,99.21
1807.00,99.21
1806.00,99.21
1805.00,99.21
1804.00,99.20
1803.00,99.20
1802.00,99.20
1801.00,99.20
1800.00,99.20
1799.00,99.20
1798.00,99.20
1797.00,99.20
1796.00,99.20
1795.00,99.20
1794.00,99.20
1793.00,99.20
1792.00,99.20
1791.00,99.20
1790.00,99.20
1789.00,99.20
1788.00,99.20
1787.00,99.20
1786.00,99.20
1785.00,99.20
1784.00,99.20
1783.00,99.19
1782.00,99.19
1781.00,99.19
1780.00,99.19
1779.00,99.19
1778.00,99.20
1777.00,99.20
1776.00,99.19
1775.00,99.19
1774.00,99.19
1773.00,99.19
1772.00,99.19
1771.00,99.19
1770.00,99.18
1769.00,99.18
1768.00,99.18
1767.00,99.18
1766.00,99.18
1765.00,99.18
1764.00,99.18
1763.00,99.18
1762.00,99.18
1761.00,99.17
1760.00,99.17
1759.00,99.16
1758.00,99.16
1757.00,99.15
1756.00,99.15
1755.00,99.14
1754.00,99.13
1753.00,99.13
1752.00,99.12
1751.00,99.12
1750.00,99.12
1749.00,99.11
1748.00,99.11
1747.00,99.11
1746.00,99.11
1745.00,99.11
1744.00,99.10
1743.00,99.09
1742.00,99.09
1741.00,99.09
1740.00,99.09
1739.00,99.09
1738.00,99.08
1737.00,99.07
1736.00,99.06
1735.00,99.06
1734.00,99.06
1733.00,99.06
1732.00,99.05
1731.00,99.06
1730.00,99.06
1729.00,99.06
1728.00,99.06
1727.00,99.06
1726.00,99.06
1725.00,99.05
1724.00,99.05
1723.00,99.04
1722.00,99.04
1721.00,99.04
1720.00,99.03
1719.00,99.03
1718.00,99.04
1717.00,99.04
1716.00,99.04
1715.00,99.05
1714.00,99.05
1713.00,99.06
1712.00,99.06
1711.00,99.07
1710.00,99.08
1709.00,99.08
1708.00,99.09
1707.00,99.09
1706.00,99.10
1705.00,99.10
1704.00,99.10
1703.00,99.10
1702.00,99.10
1701.00,99.11
1700.00,99.11
1699.00,99.11
1698.00,99.11
1697.00,99.11
1696.00,99.11
1695.00,99.12
1694.00,99.12
1693.00,99.11
1692.00,99.11
1691.00,99.11
1690.00,99.12
1689.00,99.12
1688.00,99.12
1687.00,99.12
1686.00,99.12
1685.00,99.12
1684.00,99.12
1683.00,99.11
1682.00,99.12
1681.00,99.11
1680.00,99.11
1679.00,99.12
1678.00,99.11
1677.00,99.11
1676.00,99.11
1675.00,99.11
1674.00,99.10
1673.00,99.10
1672.00,99.10
1671.00,99.11
1670.00,99.11
1669.00,99.11
1668.00,99.10
1667.00,99.10
1666.00,99.10
1665.00,99.10
1664.00,99.09
1663.00,99.09
1662.00,99.09
1661.00,99.09
1660.00,99.09
1659.00,99.09
1658.00,99.09
1657.00,99.09
1656.00,99.08
1655.00,99.07
1654.00,99.07
1653.00,99.07
1652.00,99.06
1651.00,99.06
1650.00,99.06
1649.00,99.05
1648.00,99.03
1647.00,99.01
1646.00,99.00
1645.00,98.98
1644.00,98.97
1643.00,98.96
1642.00,98.96
1641.00,98.96
1640.00,98.97
1639.00,98.97
1638.00,98.98
1637.00,98.99
1636.00,98.99
1635.00,99.01
1634.00,99.02
1633.00,99.02
1632.00,99.02
1631.00,99.02
1630.00,99.02
1629.00,99.02
1628.00,99.02
1627.00,99.02
1626.00,99.02
1625.00,99.02
1624.00,99.02
1623.00,99.02
1622.00,99.02
1621.00,99.02
1620.00,99.01
1619.00,99.01
1618.00,99.01
1617.00,99.01
1616.00,99.01
1615.00,99.01
1614.00,99.02
1613.00,99.02
1612.00,99.01
1611.00,99.01
1610.00,99.02
1609.00,99.01
1608.00,99.01
1607.00,99.01
1606.00,99.01
1605.00,99.01
1604.00,99.01
1603.00,99.01
1602.00,99.00
1601.00,99.00
1600.00,99.00
1599.00,99.00
1598.00,99.00
1597.00,99.00
1596.00,98.99
1595.00,98.98
1594.00,98.98
1593.00,98.98
1592.00,98.98
1591.00,98.98
1590.00,98.98
1589.00,98.98
1588.00,98.97
1587.00,98.97
1586.00,98.97
1585.00,98.96
1584.00,98.96
1583.00,98.96
1582.00,98.97
1581.00,98.97
1580.00,98.97
1579.00,98.97
1578.00,98.97
1577.00,98.96
1576.00,98.96
1575.00,98.97
1574.00,98.98
1573.00,98.98
1572.00,98.97
1571.00,98.98
1570.00,98.98
1569.00,98.98
1568.00,98.98
1567.00,98.98
1566.00,98.98
1565.00,98.98
1564.00,98.98
1563.00,98.98
1562.00,98.98
1561.00,98.98
1560.00,98.97
1559.00,98.97
1558.00,98.97
1557.00,98.96
1556.00,98.95
1555.00,98.95
1554.00,98.95
1553.00,98.95
1552.00,98.95
1551.00,98.95
1550.00,98.95
1549.00,98.94
1548.00,98.93
1547.00,98.92
1546.00,98.93
1545.00,98.93
1544.00,98.93
1543.00,98.93
1542.00,98.93
1541.00,98.93
1540.00,98.91
1539.00,98.92
1538.00,98.93
1537.00,98.93
1536.00,98.92
1535.00,98.92
1534.00,98.93
1533.00,98.92
1532.00,98.91
1531.00,98.91
1530.00,98.91
1529.00,98.91
1528.00,98.90
1527.00,98.90
1526.00,98.90
1525.00,98.89
1524.00,98.88
1523.00,98.88
1522.00,98.88
1521.00,98.87
1520.00,98.86
1519.00,98.86
1518.00,98.86
1517.00,98.84
1516.00,98.83
1515.00,98.83
1514.00,98.83
1513.00,98.81
1512.00,98.80
1511.00,98.79
1510.00,98.78
1509.00,98.76
1508.00,98.73
1507.00,98.72
1506.00,98.73
1505.00,98.71
1504.00,98.69
1503.00,98.68
1502.00,98.68
1501.00,98.66
1500.00,98.63
1499.00,98.61
1498.00,98.61
1497.00,98.58
1496.00,98.54
1495.00,98.53
1494.00,98.52
1493.00,98.49
1492.00,98.45
1491.00,98.42
1490.00,98.38
1489.00,98.32
1488.00,98.24
1487.00,98.18
1486.00,98.11
1485.00,98.01
1484.00,97.88
1483.00,97.73
1482.00,97.53
1481.00,97.22
1480.00,96.81
1479.00,96.19
1478.00,95.09
1477.00,93.17
1476.00,90.33
1475.00,86.81
1474.00,83.13
1473.00,80.34
1472.00,79.45
1471.00,80.17
1470.00,81.46
1469.00,82.69
1468.00,83.70
1467.00,84.42
1466.00,84.70
1465.00,84.50
1464.00,84.18
1463.00,84.31
1462.00,85.17
1461.00,86.68
1460.00,88.56
1459.00,90.43
1458.00,92.03
1457.00,93.24
1456.00,94.02
1455.00,94.51
1454.00,94.88
1453.00,95.24
1452.00,95.58
1451.00,95.86
1450.00,96.06
1449.00,96.23
1448.00,96.37
1447.00,96.47
1446.00,96.53
1445.00,96.59
1444.00,96.66
1443.00,96.71
1442.00,96.75
1441.00,96.81
1440.00,96.87
1439.00,96.92
1438.00,96.97
1437.00,97.05
1436.00,97.15
1435.00,97.23
1434.00,97.30
1433.00,97.39
1432.00,97.49
1431.00,97.59
1430.00,97.70
1429.00,97.81
1428.00,97.92
1427.00,98.00
1426.00,98.07
1425.00,98.15
1424.00,98.22
1423.00,98.27
1422.00,98.31
1421.00,98.35
1420.00,98.40
1419.00,98.43
1418.00,98.45
1417.00,98.47
1416.00,98.49
1415.00,98.50
1414.00,98.51
1413.00,98.52
1412.00,98.54
1411.00,98.55
1410.00,98.55
1409.00,98.56
1408.00,98.58
1407.00,98.59
1406.00,98.60
1405.00,98.61
1404.00,98.63
1403.00,98.63
1402.00,98.64
1401.00,98.65
1400.00,98.65
1399.00,98.65
1398.00,98.65
1397.00,98.65
1396.00,98.66
1395.00,98.66
1394.00,98.66
1393.00,98.66
1392.00,98.66
1391.00,98.66
1390.00,98.66
1389.00,98.65
1388.00,98.65
1387.00,98.65
1386.00,98.64
1385.00,98.63
1384.00,98.62
1383.00,98.60
1382.00,98.57
1381.00,98.54
1380.00,98.51
1379.00,98.47
1378.00,98.43
1377.00,98.39
1376.00,98.35
1375.00,98.29
1374.00,98.22
1373.00,98.16
1372.00,98.09
1371.00,98.04
1370.00,97.99
1369.00,97.96
1368.00,97.96
1367.00,97.98
1366.00,98.00
1365.00,98.04
1364.00,98.09
1363.00,98.13
1362.00,98.17
1361.00,98.19
1360.00,98.21
1359.00,98.22
1358.00,98.22
1357.00,98.22
1356.00,98.21
1355.00,98.20
1354.00,98.19
1353.00,98.19
1352.00,98.19
1351.00,98.20
1350.00,98.22
1349.00,98.24
1348.00,98.26
1347.00,98.29
1346.00,98.31
1345.00,98.33
1344.00,98.35
1343.00,98.37
1342.00,98.39
1341.00,98.41
1340.00,98.43
1339.00,98.44
1338.00,98.46
1337.00,98.48
1336.00,98.51
1335.00,98.53
1334.00,98.54
1333.00,98.56
1332.00,98.57
1331.00,98.57
1330.00,98.57
1329.00,98.57
1328.00,98.57
1327.00,98.57
1326.00,98.56
1325.00,98.55
1324.00,98.54
1323.00,98.53
1322.00,98.51
1321.00,98.50
1320.00,98.48
1319.00,98.46
1318.00,98.44
1317.00,98.43
1316.00,98.41
1315.00,98.40
1314.00,98.38
1313.00,98.36
1312.00,98.35
1311.00,98.33
1310.00,98.31
1309.00,98.30
1308.00,98.29
1307.00,98.29
1306.00,98.28
1305.00,98.28
1304.00,98.29
1303.00,98.29
1302.00,98.28
1301.00,98.29
1300.00,98.29
1299.00,98.30
1298.00,98.31
1297.00,98.32
1296.00,98.34
1295.00,98.35
1294.00,98.36
1293.00,98.38
1292.00,98.40
1291.00,98.41
1290.00,98.42
1289.00,98.43
1288.00,98.45
1287.00,98.46
1286.00,98.46
1285.00,98.47
1284.00,98.48
1283.00,98.49
1282.00,98.49
1281.00,98.50
1280.00,98.51
1279.00,98.51
1278.00,98.51
1277.00,98.52
1276.00,98.52
1275.00,98.53
1274.00,98.53
1273.00,98.53
1272.00,98.53
1271.00,98.53
1270.00,98.53
1269.00,98.54
1268.00,98.55
1267.00,98.55
1266.00,98.56
1265.00,98.57
1264.00,98.58
1263.00,98.59
1262.00,98.60
1261.00,98.61
1260.00,98.62
1259.00,98.64
1258.00,98.65
1257.00,98.66
1256.00,98.68
1255.00,98.70
1254.00,98.71
1253.00,98.73
1252.00,98.75
1251.00,98.77
1250.00,98.78
1249.00,98.79
1248.00,98.81
1247.00,98.83
1246.00,98.84
1245.00,98.86
1244.00,98.88
1243.00,98.88
1242.00,98.89
1241.00,98.89
1240.00,98.90
1239.00,98.91
1238.00,98.92
1237.00,98.92
1236.00,98.92
1235.00,98.92
1234.00,98.92
1233.00,98.93
1232.00,98.93
1231.00,98.93
1230.00,98.93
1229.00,98.93
1228.00,98.92
1227.00,98.91
1226.00,98.90
1225.00,98.90
1224.00,98.90
1223.00,98.90
1222.00,98.91
1221.00,98.90
1220.00,98.89
1219.00,98.89
1218.00,98.88
1217.00,98.88
1216.00,98.88
1215.00,98.87
1214.00,98.86
1213.00,98.86
1212.00,98.86
1211.00,98.85
1210.00,98.85
1209.00,98.84
1208.00,98.84
1207.00,98.84
1206.00,98.84
1205.00,98.84
1204.00,98.84
1203.00,98.84
1202.00,98.83
1201.00,98.82
1200.00,98.81
1199.00,98.80
1198.00,98.79
1197.00,98.79
1196.00,98.79
1195.00,98.78
1194.00,98.78
1193.00,98.77
1192.00,98.77
1191.00,98.77
1190.00,98.77
1189.00,98.76
1188.00,98.76
1187.00,98.75
1186.00,98.74
1185.00,98.74
1184.00,98.73
1183.00,98.73
1182.00,98.72
1181.00,98.71
1180.00,98.70
1179.00,98.69
1178.00,98.67
1177.00,98.66
1176.00,98.65
1175.00,98.65
1174.00,98.65
1173.00,98.65
1172.00,98.65
1171.00,98.65
1170.00,98.64
1169.00,98.64
1168.00,98.65
1167.00,98.65
1166.00,98.64
1165.00,98.64
1164.00,98.65
1163.00,98.65
1162.00,98.65
1161.00,98.64
1160.00,98.64
1159.00,98.64
1158.00,98.64
1157.00,98.64
1156.00,98.65
1155.00,98.65
1154.00,98.66
1153.00,98.66
1152.00,98.66
1151.00,98.65
1150.00,98.64
1149.00,98.63
1148.00,98.63
1147.00,98.63
1146.00,98.63
1145.00,98.62
1144.00,98.62
1143.00,98.61
1142.00,98.61
1141.00,98.60
1140.00,98.60
1139.00,98.59
1138.00,98.59
1137.00,98.58
1136.00,98.58
1135.00,98.57
1134.00,98.57
1133.00,98.56
1132.00,98.55
1131.00,98.54
1130.00,98.53
1129.00,98.53
1128.00,98.52
1127.00,98.52
1126.00,98.51
1125.00,98.50
1124.00,98.50
1123.00,98.50
1122.00,98.49
1121.00,98.49
1120.00,98.48
1119.00,98.47
1118.00,98.46
1117.00,98.46
1116.00,98.45
1115.00,98.45
1114.00,98.44
1113.00,98.44
1112.00,98.43
1111.00,98.43
1110.00,98.42
1109.00,98.42
1108.00,98.41
1107.00,98.41
1106.00,98.40
1105.00,98.39
1104.00,98.39
1103.00,98.39
1102.00,98.38
1101.00,98.38
1100.00,98.37
1099.00,98.36
1098.00,98.35
1097.00,98.35
1096.00,98.34
1095.00,98.34
1094.00,98.33
1093.00,98.33
1092.00,98.33
1091.00,98.33
1090.00,98.33
1089.00,98.33
1088.00,98.33
1087.00,98.33
1086.00,98.32
1085.00,98.31
1084.00,98.31
1083.00,98.31
1082.00,98.31
1081.00,98.31
1080.00,98.31
1079.00,98.31
1078.00,98.31
1077.00,98.31
1076.00,98.32
1075.00,98.33
1074.00,98.35
1073.00,98.36
1072.00,98.36
1071.00,98.37
1070.00,98.37
1069.00,98.37
1068.00,98.37
1067.00,98.37
1066.00,98.36
1065.00,98.35
1064.00,98.34
1063.00,98.34
1062.00,98.34
1061.00,98.34
1060.00,98.35
1059.00,98.36
1058.00,98.37
1057.00,98.37
1056.00,98.38
1055.00,98.38
1054.00,98.38
1053.00,98.38
1052.00,98.38
1051.00,98.38
1050.00,98.39
1049.00,98.40
1048.00,98.41
1047.00,98.42
1046.00,98.42
1045.00,98.43
1044.00,98.44
1043.00,98.44
1042.00,98.44
1041.00,98.44
1040.00,98.44
1039.00,98.43
1038.00,98.43
1037.00,98.43
1036.00,98.43
1035.00,98.43
1034.00,98.43
1033.00,98.43
1032.00,98.43
1031.00,98.44
1030.00,98.44
1029.00,98.45
1028.00,98.45
1027.00,98.46
1026.00,98.46
1025.00,98.46
1024.00,98.46
1023.00,98.46
1022.00,98.46
1021.00,98.46
1020.00,98.46
1019.00,98.46
1018.00,98.46
1017.00,98.45
1016.00,98.45
1015.00,98.45
1014.00,98.45
1013.00,98.45
1012.00,98.46
1011.00,98.46
1010.00,98.47
1009.00,98.48
1008.00,98.49
1007.00,98.50
1006.00,98.50
1005.00,98.50
1004.00,98.49
1003.00,98.48
1002.00,98.48
1001.00,98.47
1000.00,98.47
999.00,98.47
998.00,98.46
997.00,98.44
996.00,98.43
995.00,98.42
994.00,98.41
993.00,98.40
992.00,98.39
991.00,98.39
990.00,98.40
989.00,98.41
988.00,98.43
987.00,98.45
986.00,98.47
985.00,98.49
984.00,98.51
983.00,98.52
982.00,98.53
981.00,98.55
980.00,98.56
979.00,98.56
978.00,98.56
977.00,98.56
976.00,98.56
975.00,98.57
974.00,98.57
973.00,98.58
972.00,98.58
971.00,98.59
970.00,98.60
969.00,98.61
968.00,98.61
967.00,98.62
966.00,98.62
965.00,98.62
964.00,98.61
963.00,98.60
962.00,98.60
961.00,98.60
960.00,98.60
959.00,98.60
958.00,98.60
957.00,98.60
956.00,98.60
955.00,98.61
954.00,98.61
953.00,98.61
952.00,98.61
951.00,98.61
950.00,98.61
949.00,98.61
948.00,98.62
947.00,98.61
946.00,98.61
945.00,98.61
944.00,98.62
943.00,98.62
942.00,98.62
941.00,98.62
940.00,98.63
939.00,98.63
938.00,98.63
937.00,98.62
936.00,98.62
935.00,98.62
934.00,98.61
933.00,98.60
932.00,98.60
931.00,98.59
930.00,98.59
929.00,98.58
928.00,98.58
927.00,98.58
926.00,98.57
925.00,98.57
924.00,98.57
923.00,98.56
922.00,98.56
921.00,98.55
920.00,98.55
919.00,98.55
918.00,98.53
917.00,98.50
916.00,98.47
915.00,98.42
914.00,98.35
913.00,98.27
912.00,98.18
911.00,98.08
910.00,97.98
909.00,97.93
908.00,97.93
907.00,97.99
906.00,98.08
905.00,98.18
904.00,98.27
903.00,98.34
902.00,98.38
901.00,98.41
900.00,98.43
899.00,98.45
898.00,98.46
897.00,98.48
896.00,98.50
895.00,98.52
894.00,98.52
893.00,98.53
892.00,98.53
891.00,98.54
890.00,98.53
889.00,98.51
888.00,98.50
887.00,98.50
886.00,98.50
885.00,98.50
884.00,98.50
883.00,98.50
882.00,98.50
881.00,98.50
880.00,98.51
879.00,98.50
878.00,98.50
877.00,98.49
876.00,98.49
875.00,98.50
874.00,98.51
873.00,98.52
872.00,98.53
871.00,98.53
870.00,98.52
869.00,98.51
868.00,98.52
867.00,98.52
866.00,98.53
865.00,98.53
864.00,98.52
863.00,98.52
862.00,98.51
861.00,98.50
860.00,98.50
859.00,98.49
858.00,98.48
857.00,98.47
856.00,98.47
855.00,98.48
854.00,98.49
853.00,98.49
852.00,98.49
851.00,98.48
850.00,98.47
849.00,98.46
848.00,98.47
847.00,98.47
846.00,98.46
845.00,98.45
844.00,98.44
843.00,98.43
842.00,98.43
841.00,98.44
840.00,98.44
839.00,98.44
838.00,98.43
837.00,98.41
836.00,98.41
835.00,98.41
834.00,98.41
833.00,98.42
832.00,98.44
831.00,98.45
830.00,98.46
829.00,98.47
828.00,98.47
827.00,98.46
826.00,98.45
825.00,98.44
824.00,98.43
823.00,98.42
822.00,98.42
821.00,98.41
820.00,98.42
819.00,98.41
818.00,98.40
817.00,98.40
816.00,98.40
815.00,98.39
814.00,98.38
813.00,98.37
812.00,98.36
811.00,98.36
810.00,98.35
809.00,98.35
808.00,98.34
807.00,98.35
806.00,98.35
805.00,98.35
804.00,98.35
803.00,98.34
802.00,98.34
801.00,98.34
800.00,98.34
799.00,98.34
798.00,98.34
797.00,98.33
796.00,98.32
795.00,98.31
794.00,98.31
793.00,98.32
792.00,98.33
791.00,98.33
790.00,98.32
789.00,98.31
788.00,98.31
787.00,98.31
786.00,98.30
785.00,98.30
784.00,98.30
783.00,98.30
782.00,98.30
781.00,98.30
780.00,98.30
779.00,98.30
778.00,98.28
777.00,98.26
776.00,98.25
775.00,98.23
774.00,98.22
773.00,98.21
772.00,98.21
771.00,98.21
770.00,98.21
769.00,98.21
768.00,98.20
767.00,98.19
766.00,98.18
765.00,98.16
764.00,98.15
763.00,98.14
762.00,98.12
761.00,98.11
760.00,98.11
759.00,98.11
758.00,98.11
757.00,98.09
756.00,98.07
755.00,98.05
754.00,98.03
753.00,97.99
752.00,97.96
751.00,97.93
750.00,97.91
749.00,97.88
748.00,97.86
747.00,97.84
746.00,97.80
745.00,97.74
744.00,97.68
743.00,97.61
742.00,97.54
741.00,97.45
740.00,97.34
739.00,97.20
738.00,97.00
737.00,96.68
736.00,96.18
735.00,95.32
734.00,93.91
733.00,91.99
732.00,89.98
731.00,88.56
730.00,88.18
729.00,88.69
728.00,89.55
727.00,90.15
726.00,90.21
725.00,89.69
724.00,88.62
723.00,86.92
722.00,84.52
721.00,81.60
720.00,78.71
719.00,76.52
718.00,75.45
717.00,75.64
716.00,77.04
715.00,79.43
714.00,82.37
713.00,85.27
712.00,87.72
711.00,89.60
710.00,91.00
709.00,92.07
708.00,92.91
707.00,93.56
706.00,94.07
705.00,94.49
704.00,94.83
703.00,95.12
702.00,95.37
701.00,95.60
700.00,95.82
699.00,95.99
698.00,96.15
697.00,96.28
696.00,96.40
695.00,96.50
694.00,96.57
693.00,96.63
692.00,96.68
691.00,96.72
690.00,96.77
689.00,96.84
688.00,96.91
687.00,96.97
686.00,97.01
685.00,97.04
684.00,97.07
683.00,97.10
682.00,97.12
681.00,97.15
680.00,97.19
679.00,97.21
678.00,97.23
677.00,97.25
676.00,97.28
675.00,97.31
674.00,97.32
673.00,97.33
672.00,97.34
671.00,97.35
670.00,97.37
669.00,97.40
668.00,97.40
667.00,97.41
666.00,97.43
665.00,97.47
664.00,97.48
663.00,97.46
662.00,97.44
661.00,97.44
660.00,97.45
659.00,97.46
658.00,97.45
657.00,97.47
656.00,97.51
655.00,97.55
654.00,97.57
653.00,97.57
652.00,97.54
651.00,97.50
650.00,97.45
