Created as New Dataset,PE (low density) granule 2mm GF
cm-1,%T
4000.00,99.75
3999.00,99.75
3998.00,99.75
3997.00,99.75
3996.00,99.75
3995.00,99.75
3994.00,99.75
3993.00,99.75
3992.00,99.75
3991.00,99.75
3990.00,99.75
3989.00,99.75
3988.00,99.75
3987.00,99.75
3986.00,99.74
3985.00,99.74
3984.00,99.74
3983.00,99.74
3982.00,99.74
3981.00,99.74
3980.00,99.74
3979.00,99.75
3978.00,99.75
3977.00,99.75
3976.00,99.75
3975.00,99.75
3974.00,99.75
3973.00,99.75
3972.00,99.75
3971.00,99.75
3970.00,99.75
3969.00,99.75
3968.00,99.75
3967.00,99.75
3966.00,99.75
3965.00,99.75
3964.00,99.75
3963.00,99.75
3962.00,99.75
3961.00,99.75
3960.00,99.75
3959.00,99.75
3958.00,99.75
3957.00,99.75
3956.00,99.75
3955.00,99.75
3954.00,99.75
3953.00,99.75
3952.00,99.74
3951.00,99.74
3950.00,99.74
3949.00,99.74
3948.00,99.74
3947.00,99.74
3946.00,99.74
3945.00,99.74
3944.00,99.73
3943.00,99.73
3942.00,99.73
3941.00,99.73
3940.00,99.74
3939.00,99.74
3938.00,99.74
3937.00,99.74
3936.00,99.74
3935.00,99.74
3934.00,99.73
3933.00,99.73
3932.00,99.73
3931.00,99.73
3930.00,99.73
3929.00,99.73
3928.00,99.73
3927.00,99.73
3926.00,99.73
3925.00,99.73
3924.00,99.73
3923.00,99.72
3922.00,99.72
3921.00,99.72
3920.00,99.71
3919.00,99.71
3918.00,99.71
3917.00,99.72
3916.00,99.72
3915.00,99.72
3914.00,99.71
3913.00,99.71
3912.00,99.71
3911.00,99.72
3910.00,99.72
3909.00,99.72
3908.00,99.72
3907.00,99.72
3906.00,99.72
3905.00,99.72
3904.00,99.72
3903.00,99.71
3902.00,99.71
3901.00,99.70
3900.00,99.70
3899.00,99.71
3898.00,99.71
3897.00,99.72
3896.00,99.72
3895.00,99.72
3894.00,99.72
3893.00,99.72
3892.00,99.72
3891.00,99.71
3890.00,99.71
3889.00,99.71
3888.00,99.71
3887.00,99.71
3886.00,99.71
3885.00,99.71
3884.00,99.71
3883.00,99.71
3882.00,99.71
3881.00,99.71
3880.00,99.72
3879.00,99.72
3878.00,99.71
3877.00,99.71
3876.00,99.71
3875.00,99.71
3874.00,99.71
3873.00,99.71
3872.00,99.70
3871.00,99.70
3870.00,99.71
3869.00,99.71
3868.00,99.71
3867.00,99.72
3866.00,99.72
3865.00,99.72
3864.00,99.73
3863.00,99.72
3862.00,99.72
3861.00,99.72
3860.00,99.72
3859.00,99.72
3858.00,99.72
3857.00,99.71
3856.00,99.71
3855.00,99.70
3854.00,99.70
3853.00,99.70
3852.00,99.70
3851.00,99.70
3850.00,99.70
3849.00,99.71
3848.00,99.71
3847.00,99.72
3846.00,99.72
3845.00,99.72
3844.00,99.72
3843.00,99.72
3842.00,99.71
3841.00,99.70
3840.00,99.69
3839.00,99.69
3838.00,99.70
3837.00,99.70
3836.00,99.71
3835.00,99.71
3834.00,99.71
3833.00,99.70
3832.00,99.70
3831.00,99.70
3830.00,99.70
3829.00,99.70
3828.00,99.70
3827.00,99.70
3826.00,99.70
3825.00,99.70
3824.00,99.70
3823.00,99.70
3822.00,99.69
3821.00,99.69
3820.00,99.69
3819.00,99.69
3818.00,99.68
3817.00,99.69
3816.00,99.70
3815.00,99.70
3814.00,99.70
3813.00,99.70
3812.00,99.70
3811.00,99.70
3810.00,99.70
3809.00,99.70
3808.00,99.70
3807.00,99.71
3806.00,99.71
3805.00,99.70
3804.00,99.69
3803.00,99.68
3802.00,99.69
3801.00,99.70
3800.00,99.70
3799.00,99.70
3798.00,99.70
3797.00,99.71
3796.00,99.71
3795.00,99.71
3794.00,99.71
3793.00,99.71
3792.00,99.71
3791.00,99.71
3790.00,99.71
3789.00,99.71
3788.00,99.71
3787.00,99.71
3786.00,99.71
3785.00,99.71
3784.00,99.71
3783.00,99.71
3782.00,99.70
3781.00,99.70
3780.00,99.71
3779.00,99.71
3778.00,99.71
3777.00,99.71
3776.00,99.71
3775.00,99.71
3774.00,99.72
3773.00,99.72
3772.00,99.72
3771.00,99.72
3770.00,99.72
3769.00,99.72
3768.00,99.71
3767.00,99.71
3766.00,99.71
3765.00,99.71
3764.00,99.71
3763.00,99.71
3762.00,99.71
3761.00,99.71
3760.00,99.71
3759.00,99.70
3758.00,99.70
3757.00,99.69
3756.00,99.69
3755.00,99.69
3754.00,99.68
3753.00,99.68
3752.00,99.68
3751.00,99.68
3750.00,99.69
3749.00,99.69
3748.00,99.69
3747.00,99.69
3746.00,99.69
3745.00,99.70
3744.00,99.70
3743.00,99.69
3742.00,99.68
3741.00,99.67
3740.00,99.67
3739.00,99.67
3738.00,99.67
3737.00,99.68
3736.00,99.68
3735.00,99.69
3734.00,99.69
3733.00,99.69
3732.00,99.70
3731.00,99.71
3730.00,99.72
3729.00,99.72
3728.00,99.72
3727.00,99.73
3726.00,99.72
3725.00,99.72
3724.00,99.71
3723.00,99.70
3722.00,99.70
3721.00,99.70
3720.00,99.70
3719.00,99.71
3718.00,99.71
3717.00,99.71
3716.00,99.71
3715.00,99.72
3714.00,99.72
3713.00,99.71
3712.00,99.71
3711.00,99.71
3710.00,99.71
3709.00,99.71
3708.00,99.71
3707.00,99.71
3706.00,99.71
3705.00,99.71
3704.00,99.72
3703.00,99.72
3702.00,99.72
3701.00,99.72
3700.00,99.72
3699.00,99.72
3698.00,99.72
3697.00,99.72
3696.00,99.71
3695.00,99.71
3694.00,99.71
3693.00,99.70
3692.00,99.70
3691.00,99.70
3690.00,99.69
3689.00,99.69
3688.00,99.70
3687.00,99.70
3686.00,99.70
3685.00,99.70
3684.00,99.70
3683.00,99.70
3682.00,99.70
3681.00,99.69
3680.00,99.68
3679.00,99.66
3678.00,99.65
3677.00,99.65
3676.00,99.66
3675.00,99.67
3674.00,99.68
3673.00,99.68
3672.00,99.68
3671.00,99.69
3670.00,99.70
3669.00,99.70
3668.00,99.70
3667.00,99.70
3666.00,99.70
3665.00,99.70
3664.00,99.70
3663.00,99.69
3662.00,99.69
3661.00,99.69
3660.00,99.69
3659.00,99.68
3658.00,99.69
3657.00,99.69
3656.00,99.70
3655.00,99.70
3654.00,99.69
3653.00,99.69
3652.00,99.68
3651.00,99.67
3650.00,99.67
3649.00,99.67
3648.00,99.67
3647.00,99.67
3646.00,99.67
3645.00,99.67
3644.00,99.67
3643.00,99.68
3642.00,99.68
3641.00,99.68
3640.00,99.68
3639.00,99.69
3638.00,99.69
3637.00,99.69
3636.00,99.70
3635.00,99.70
3634.00,99.70
3633.00,99.71
3632.00,99.70
3631.00,99.70
3630.00,99.71
3629.00,99.71
3628.00,99.71
3627.00,99.71
3626.00,99.70
3625.00,99.70
3624.00,99.70
3623.00,99.70
3622.00,99.69
3621.00,99.69
3620.00,99.68
3619.00,99.68
3618.00,99.67
3617.00,99.67
3616.00,99.66
3615.00,99.66
3614.00,99.65
3613.00,99.65
3612.00,99.64
3611.00,99.64
3610.00,99.63
3609.00,99.63
3608.00,99.62
3607.00,99.62
3606.00,99.61
3605.00,99.61
3604.00,99.61
3603.00,99.62
3602.00,99.62
3601.00,99.63
3600.00,99.64
3599.00,99.65
3598.00,99.66
3597.00,99.67
3596.00,99.68
3595.00,99.69
3594.00,99.70
3593.00,99.71
3592.00,99.72
3591.00,99.72
3590.00,99.72
3589.00,99.72
3588.00,99.73
3587.00,99.73
3586.00,99.73
3585.00,99.73
3584.00,99.73
3583.00,99.74
3582.00,99.74
3581.00,99.74
3580.00,99.75
3579.00,99.75
3578.00,99.75
3577.00,99.75
3576.00,99.75
3575.00,99.75
3574.00,99.75
3573.00,99.75
3572.00,99.75
3571.00,99.76
3570.00,99.75
3569.00,99.75
3568.00,99.76
3567.00,99.76
3566.00,99.76
3565.00,99.76
3564.00,99.75
3563.00,99.75
3562.00,99.75
3561.00,99.75
3560.00,99.75
3559.00,99.75
3558.00,99.76
3557.00,99.76
3556.00,99.76
3555.00,99.76
3554.00,99.76
3553.00,99.76
3552.00,99.76
3551.00,99.76
3550.00,99.76
3549.00,99.76
3548.00,99.75
3547.00,99.75
3546.00,99.75
3545.00,99.75
3544.00,99.75
3543.00,99.76
3542.00,99.76
3541.00,99.76
3540.00,99.76
3539.00,99.76
3538.00,99.76
3537.00,99.76
3536.00,99.77
3535.00,99.77
3534.00,99.77
3533.00,99.77
3532.00,99.76
3531.00,99.76
3530.00,99.75
3529.00,99.75
3528.00,99.75
3527.00,99.75
3526.00,99.75
3525.00,99.75
3524.00,99.75
3523.00,99.75
3522.00,99.75
3521.00,99.75
3520.00,99.75
3519.00,99.75
3518.00,99.75
3517.00,99.75
3516.00,99.76
3515.00,99.76
3514.00,99.76
3513.00,99.76
3512.00,99.76
3511.00,99.76
3510.00,99.75
3509.00,99.75
3508.00,99.75
3507.00,99.74
3506.00,99.74
3505.00,99.75
3504.00,99.75
3503.00,99.75
3502.00,99.75
3501.00,99.75
3500.00,99.74
3499.00,99.74
3498.00,99.74
3497.00,99.74
3496.00,99.74
3495.00,99.74
3494.00,99.75
3493.00,99.75
3492.00,99.75
3491.00,99.75
3490.00,99.75
3489.00,99.75
3488.00,99.75
3487.00,99.74
3486.00,99.74
3485.00,99.74
3484.00,99.74
3483.00,99.74
3482.00,99.74
3481.00,99.74
3480.00,99.74
3479.00,99.74
3478.00,99.74
3477.00,99.74
3476.00,99.75
3475.00,99.74
3474.00,99.74
3473.00,99.74
3472.00,99.73
3471.00,99.73
3470.00,99.73
3469.00,99.73
3468.00,99.73
3467.00,99.73
3466.00,99.73
3465.00,99.73
3464.00,99.73
3463.00,99.73
3462.00,99.73
3461.00,99.73
3460.00,99.73
3459.00,99.72
3458.00,99.72
3457.00,99.73
3456.00,99.73
3455.00,99.73
3454.00,99.73
3453.00,99.72
3452.00,99.72
3451.00,99.72
3450.00,99.72
3449.00,99.72
3448.00,99.72
3447.00,99.72
3446.00,99.72
3445.00,99.71
3444.00,99.71
3443.00,99.71
3442.00,99.72
3441.00,99.72
3440.00,99.72
3439.00,99.73
3438.00,99.73
3437.00,99.73
3436.00,99.73
3435.00,99.73
3434.00,99.73
3433.00,99.72
3432.00,99.72
3431.00,99.71
3430.00,99.71
3429.00,99.71
3428.00,99.72
3427.00,99.72
3426.00,99.72
3425.00,99.72
3424.00,99.72
3423.00,99.72
3422.00,99.71
3421.00,99.71
3420.00,99.71
3419.00,99.72
3418.00,99.72
3417.00,99.72
3416.00,99.72
3415.00,99.72
3414.00,99.72
3413.00,99.72
3412.00,99.72
3411.00,99.72
3410.00,99.72
3409.00,99.72
3408.00,99.72
3407.00,99.71
3406.00,99.71
3405.00,99.71
3404.00,99.72
3403.00,99.72
3402.00,99.72
3401.00,99.71
3400.00,99.71
3399.00,99.71
3398.00,99.71
3397.00,99.71
3396.00,99.70
3395.00,99.70
3394.00,99.70
3393.00,99.70
3392.00,99.70
3391.00,99.70
3390.00,99.71
3389.00,99.71
3388.00,99.71
3387.00,99.71
3386.00,99.71
3385.00,99.71
3384.00,99.71
3383.00,99.71
3382.00,99.71
3381.00,99.71
3380.00,99.71
3379.00,99.71
3378.00,99.71
3377.00,99.71
3376.00,99.71
3375.00,99.71
3374.00,99.70
3373.00,99.70
3372.00,99.70
3371.00,99.70
3370.00,99.70
3369.00,99.70
3368.00,99.70
3367.00,99.71
3366.00,99.71
3365.00,99.72
3364.00,99.72
3363.00,99.72
3362.00,99.71
3361.00,99.71
3360.00,99.71
3359.00,99.71
3358.00,99.71
3357.00,99.71
3356.00,99.71
3355.00,99.72
3354.00,99.72
3353.00,99.72
3352.00,99.72
3351.00,99.72
3350.00,99.72
3349.00,99.72
3348.00,99.71
3347.00,99.71
3346.00,99.71
3345.00,99.71
3344.00,99.72
3343.00,99.72
3342.00,99.72
3341.00,99.72
3340.00,99.73
3339.00,99.73
3338.00,99.73
3337.00,99.73
3336.00,99.73
3335.00,99.73
3334.00,99.73
3333.00,99.73
3332.00,99.73
3331.00,99.73
3330.00,99.73
3329.00,99.73
3328.00,99.72
3327.00,99.73
3326.00,99.73
3325.00,99.74
3324.00,99.74
3323.00,99.74
3322.00,99.74
3321.00,99.74
3320.00,99.74
3319.00,99.74
3318.00,99.74
3317.00,99.74
3316.00,99.75
3315.00,99.74
3314.00,99.74
3313.00,99.74
3312.00,99.73
3311.00,99.73
3310.00,99.73
3309.00,99.74
3308.00,99.74
3307.00,99.74
3306.00,99.74
3305.00,99.74
3304.00,99.75
3303.00,99.75
3302.00,99.75
3301.00,99.75
3300.00,99.75
3299.00,99.75
3298.00,99.75
3297.00,99.75
3296.00,99.74
3295.00,99.74
3294.00,99.74
3293.00,99.74
3292.00,99.74
3291.00,99.74
3290.00,99.74
3289.00,99.75
3288.00,99.75
3287.00,99.74
3286.00,99.74
3285.00,99.74
3284.00,99.74
3283.00,99.74
3282.00,99.74
3281.00,99.74
3280.00,99.74
3279.00,99.74
3278.00,99.74
3277.00,99.74
3276.00,99.74
3275.00,99.74
3274.00,99.75
3273.00,99.75
3272.00,99.75
3271.00,99.75
3270.00,99.74
3269.00,99.74
3268.00,99.74
3267.00,99.74
3266.00,99.75
3265.00,99.75
3264.00,99.75
3263.00,99.75
3262.00,99.75
3261.00,99.75
3260.00,99.75
3259.00,99.75
3258.00,99.75
3257.00,99.75
3256.00,99.75
3255.00,99.75
3254.00,99.75
3253.00,99.76
3252.00,99.75
3251.00,99.75
3250.00,99.75
3249.00,99.74
3248.00,99.74
3247.00,99.74
3246.00,99.74
3245.00,99.74
3244.00,99.74
3243.00,99.75
3242.00,99.75
3241.00,99.75
3240.00,99.75
3239.00,99.75
3238.00,99.75
3237.00,99.75
3236.00,99.75
3235.00,99.75
3234.00,99.75
3233.00,99.75
3232.00,99.75
3231.00,99.75
3230.00,99.75
3229.00,99.75
3228.00,99.75
3227.00,99.75
3226.00,99.75
3225.00,99.75
3224.00,99.75
3223.00,99.75
3222.00,99.75
3221.00,99.74
3220.00,99.74
3219.00,99.74
3218.00,99.74
3217.00,99.74
3216.00,99.74
3215.00,99.73
3214.00,99.73
3213.00,99.73
3212.00,99.73
3211.00,99.73
3210.00,99.74
3209.00,99.74
3208.00,99.74
3207.00,99.74
3206.00,99.74
3205.00,99.74
3204.00,99.73
3203.00,99.73
3202.00,99.73
3201.00,99.73
3200.00,99.73
3199.00,99.73
3198.00,99.73
3197.00,99.73
3196.00,99.73
3195.00,99.73
3194.00,99.73
3193.00,99.73
3192.00,99.73
3191.00,99.73
3190.00,99.73
3189.00,99.73
3188.00,99.73
3187.00,99.73
3186.00,99.73
3185.00,99.73
3184.00,99.73
3183.00,99.73
3182.00,99.73
3181.00,99.73
3180.00,99.73
3179.00,99.72
3178.00,99.72
3177.00,99.72
3176.00,99.72
3175.00,99.72
3174.00,99.72
3173.00,99.73
3172.00,99.73
3171.00,99.73
3170.00,99.73
3169.00,99.73
3168.00,99.73
3167.00,99.73
3166.00,99.73
3165.00,99.72
3164.00,99.72
3163.00,99.72
3162.00,99.72
3161.00,99.72
3160.00,99.72
3159.00,99.72
3158.00,99.72
3157.00,99.72
3156.00,99.72
3155.00,99.73
3154.00,99.73
3153.00,99.72
3152.00,99.72
3151.00,99.72
3150.00,99.72
3149.00,99.72
3148.00,99.72
3147.00,99.72
3146.00,99.72
3145.00,99.71
3144.00,99.71
3143.00,99.70
3142.00,99.70
3141.00,99.70
3140.00,99.70
3139.00,99.70
3138.00,99.70
3137.00,99.70
3136.00,99.70
3135.00,99.70
3134.00,99.70
3133.00,99.70
3132.00,99.70
3131.00,99.69
3130.00,99.69
3129.00,99.69
3128.00,99.68
3127.00,99.68
3126.00,99.68
3125.00,99.67
3124.00,99.67
3123.00,99.67
3122.00,99.67
3121.00,99.67
3120.00,99.67
3119.00,99.66
3118.00,99.66
3117.00,99.66
3116.00,99.65
3115.00,99.65
3114.00,99.64
3113.00,99.64
3112.00,99.63
3111.00,99.63
3110.00,99.63
3109.00,99.62
3108.00,99.62
3107.00,99.61
3106.00,99.61
3105.00,99.60
3104.00,99.59
3103.00,99.58
3102.00,99.58
3101.00,99.57
3100.00,99.56
3099.00,99.55
3098.00,99.55
3097.00,99.54
3096.00,99.53
3095.00,99.53
3094.00,99.52
3093.00,99.52
3092.00,99.51
3091.00,99.50
3090.00,99.49
3089.00,99.48
3088.00,99.47
3087.00,99.46
3086.00,99.46
3085.00,99.45
3084.00,99.45
3083.00,99.44
3082.00,99.44
3081.00,99.43
3080.00,99.43
3079.00,99.42
3078.00,99.42
3077.00,99.41
3076.00,99.40
3075.00,99.40
3074.00,99.39
3073.00,99.39
3072.00,99.39
3071.00,99.38
3070.00,99.38
3069.00,99.37
3068.00,99.36
3067.00,99.35
3066.00,99.34
3065.00,99.33
3064.00,99.33
3063.00,99.32
3062.00,99.32
3061.00,99.31
3060.00,99.31
3059.00,99.30
3058.00,99.30
3057.00,99.29
3056.00,99.28
3055.00,99.27
3054.00,99.26
3053.00,99.25
3052.00,99.24
3051.00,99.23
3050.00,99.22
3049.00,99.21
3048.00,99.20
3047.00,99.20
3046.00,99.19
3045.00,99.18
3044.00,99.18
3043.00,99.17
3042.00,99.16
3041.00,99.15
3040.00,99.14
3039.00,99.13
3038.00,99.11
3037.00,99.10
3036.00,99.09
3035.00,99.08
3034.00,99.07
3033.00,99.06
3032.00,99.05
3031.00,99.04
3030.00,99.03
3029.00,99.01
3028.00,99.01
3027.00,99.00
3026.00,98.99
3025.00,98.98
3024.00,98.97
3023.00,98.96
3022.00,98.95
3021.00,98.94
3020.00,98.93
3019.00,98.91
3018.00,98.90
3017.00,98.89
3016.00,98.88
3015.00,98.87
3014.00,98.85
3013.00,98.84
3012.00,98.82
3011.00,98.80
3010.00,98.79
3009.00,98.77
3008.00,98.76
3007.00,98.74
3006.00,98.72
3005.00,98.70
3004.00,98.68
3003.00,98.66
3002.00,98.64
3001.00,98.61
3000.00,98.59
2999.00,98.57
2998.00,98.55
2997.00,98.52
2996.00,98.49
2995.00,98.46
2994.00,98.43
2993.00,98.39
2992.00,98.35
2991.00,98.31
2990.00,98.27
2989.00,98.22
2988.00,98.17
2987.00,98.12
2986.00,98.06
2985.00,98.00
2984.00,97.93
2983.00,97.86
2982.00,97.78
2981.00,97.69
2980.00,97.60
2979.00,97.50
2978.00,97.39
2977.00,97.27
2976.00,97.13
2975.00,96.99
2974.00,96.83
2973.00,96.65
2972.00,96.47
2971.00,96.27
2970.00,96.07
2969.00,95.85
2968.00,95.62
2967.00,95.38
2966.00,95.14
2965.00,94.90
2964.00,94.65
2963.00,94.41
2962.00,94.18
2961.00,93.95
2960.00,93.73
2959.00,93.52
2958.00,93.32
2957.00,93.14
2956.00,92.96
2955.00,92.80
2954.00,92.64
2953.00,92.47
2952.00,92.30
2951.00,92.09
2950.00,91.84
2949.00,91.53
2948.00,91.15
2947.00,90.68
2946.00,90.13
2945.00,89.47
2944.00,88.73
2943.00,87.89
2942.00,86.96
2941.00,85.94
2940.00,84.83
2939.00,83.64
2938.00,82.35
2937.00,80.98
2936.00,79.51
2935.00,77.95
2934.00,76.28
2933.00,74.51
2932.00,72.62
2931.00,70.62
2930.00,68.48
2929.00,66.19
2928.00,63.77
2927.00,61.18
2926.00,58.44
2925.00,55.56
2924.00,52.53
2923.00,49.41
2922.00,46.25
2921.00,43.14
2920.00,40.19
2919.00,37.59
2918.00,35.52
2917.00,34.20
2916.00,33.79
2915.00,34.33
2914.00,35.73
2913.00,37.83
2912.00,40.36
2911.00,43.09
2910.00,45.83
2909.00,48.45
2908.00,50.88
2907.00,53.07
2906.00,55.04
2905.00,56.79
2904.00,58.36
2903.00,59.76
2902.00,61.02
2901.00,62.19
2900.00,63.27
2899.00,64.29
2898.00,65.27
2897.00,66.23
2896.00,67.19
2895.00,68.15
2894.00,69.12
2893.00,70.11
2892.00,71.11
2891.00,72.13
2890.00,73.15
2889.00,74.18
2888.00,75.19
2887.00,76.19
2886.00,77.16
2885.00,78.10
2884.00,79.01
2883.00,79.88
2882.00,80.72
2881.00,81.53
2880.00,82.30
2879.00,83.03
2878.00,83.70
2877.00,84.30
2876.00,84.80
2875.00,85.21
2874.00,85.51
2873.00,85.73
2872.00,85.86
2871.00,85.93
2870.00,85.93
2869.00,85.84
2868.00,85.65
2867.00,85.33
2866.00,84.84
2865.00,84.16
2864.00,83.27
2863.00,82.13
2862.00,80.72
2861.00,79.00
2860.00,76.94
2859.00,74.49
2858.00,71.61
2857.00,68.25
2856.00,64.42
2855.00,60.15
2854.00,55.57
2853.00,50.94
2852.00,46.62
2851.00,43.06
2850.00,40.72
2849.00,39.94
2848.00,40.82
2847.00,43.19
2846.00,46.69
2845.00,50.90
2844.00,55.41
2843.00,59.91
2842.00,64.18
2841.00,68.09
2840.00,71.55
2839.00,74.57
2838.00,77.17
2837.00,79.40
2836.00,81.31
2835.00,82.95
2834.00,84.36
2833.00,85.59
2832.00,86.66
2831.00,87.60
2830.00,88.43
2829.00,89.17
2828.00,89.83
2827.00,90.43
2826.00,90.96
2825.00,91.45
2824.00,91.89
2823.00,92.30
2822.00,92.67
2821.00,93.01
2820.00,93.32
2819.00,93.61
2818.00,93.88
2817.00,94.13
2816.00,94.36
2815.00,94.58
2814.00,94.78
2813.00,94.97
2812.00,95.15
2811.00,95.32
2810.00,95.47
2809.00,95.62
2808.00,95.76
2807.00,95.89
2806.00,96.01
2805.00,96.13
2804.00,96.24
2803.00,96.35
2802.00,96.46
2801.00,96.56
2800.00,96.65
2799.00,96.74
2798.00,96.83
2797.00,96.91
2796.00,96.99
2795.00,97.07
2794.00,97.15
2793.00,97.22
2792.00,97.29
2791.00,97.36
2790.00,97.43
2789.00,97.49
2788.00,97.56
2787.00,97.62
2786.00,97.68
2785.00,97.74
2784.00,97.79
2783.00,97.84
2782.00,97.89
2781.00,97.93
2780.00,97.98
2779.00,98.02
2778.00,98.06
2777.00,98.10
2776.00,98.14
2775.00,98.17
2774.00,98.20
2773.00,98.23
2772.00,98.26
2771.00,98.29
2770.00,98.32
2769.00,98.34
2768.00,98.36
2767.00,98.38
2766.00,98.40
2765.00,98.41
2764.00,98.43
2763.00,98.45
2762.00,98.46
2761.00,98.48
2760.00,98.50
2759.00,98.51
2758.00,98.53
2757.00,98.54
2756.00,98.55
2755.00,98.56
2754.00,98.57
2753.00,98.58
2752.00,98.58
2751.00,98.59
2750.00,98.60
2749.00,98.60
2748.00,98.60
2747.00,98.60
2746.00,98.60
2745.00,98.60
2744.00,98.59
2743.00,98.60
2742.00,98.60
2741.00,98.60
2740.00,98.60
2739.00,98.61
2738.00,98.61
2737.00,98.62
2736.00,98.63
2735.00,98.63
2734.00,98.64
2733.00,98.64
2732.00,98.65
2731.00,98.66
2730.00,98.67
2729.00,98.68
2728.00,98.69
2727.00,98.70
2726.00,98.71
2725.00,98.72
2724.00,98.73
2723.00,98.75
2722.00,98.76
2721.00,98.77
2720.00,98.77
2719.00,98.78
2718.00,98.79
2717.00,98.80
2716.00,98.81
2715.00,98.81
2714.00,98.82
2713.00,98.83
2712.00,98.84
2711.00,98.85
2710.00,98.86
2709.00,98.87
2708.00,98.87
2707.00,98.88
2706.00,98.89
2705.00,98.89
2704.00,98.90
2703.00,98.90
2702.00,98.91
2701.00,98.91
2700.00,98.91
2699.00,98.92
2698.00,98.92
2697.00,98.92
2696.00,98.92
2695.00,98.91
2694.00,98.91
2693.00,98.91
2692.00,98.90
2691.00,98.90
2690.00,98.89
2689.00,98.89
2688.00,98.88
2687.00,98.88
2686.00,98.87
2685.00,98.86
2684.00,98.85
2683.00,98.84
2682.00,98.84
2681.00,98.83
2680.00,98.83
2679.00,98.82
2678.00,98.82
2677.00,98.81
2676.00,98.80
2675.00,98.79
2674.00,98.78
2673.00,98.78
2672.00,98.77
2671.00,98.76
2670.00,98.76
2669.00,98.76
2668.00,98.75
2667.00,98.75
2666.00,98.74
2665.00,98.74
2664.00,98.73
2663.00,98.72
2662.00,98.71
2661.00,98.70
2660.00,98.69
2659.00,98.68
2658.00,98.67
2657.00,98.66
2656.00,98.66
2655.00,98.66
2654.00,98.66
2653.00,98.66
2652.00,98.66
2651.00,98.66
2650.00,98.66
2649.00,98.66
2648.00,98.65
2647.00,98.65
2646.00,98.65
2645.00,98.64
2644.00,98.64
2643.00,98.64
2642.00,98.63
2641.00,98.63
2640.00,98.63
2639.00,98.62
2638.00,98.62
2637.00,98.62
2636.00,98.62
2635.00,98.63
2634.00,98.64
2633.00,98.65
2632.00,98.66
2631.00,98.67
2630.00,98.68
2629.00,98.70
2628.00,98.72
2627.00,98.73
2626.00,98.75
2625.00,98.77
2624.00,98.78
2623.00,98.80
2622.00,98.81
2621.00,98.82
2620.00,98.84
2619.00,98.86
2618.00,98.87
2617.00,98.89
2616.00,98.90
2615.00,98.91
2614.00,98.93
2613.00,98.94
2612.00,98.95
2611.00,98.96
2610.00,98.97
2609.00,98.98
2608.00,99.00
2607.00,99.01
2606.00,99.03
2605.00,99.03
2604.00,99.04
2603.00,99.05
2602.00,99.06
2601.00,99.07
2600.00,99.08
2599.00,99.09
2598.00,99.10
2597.00,99.11
2596.00,99.11
2595.00,99.12
2594.00,99.13
2593.00,99.14
2592.00,99.15
2591.00,99.16
2590.00,99.18
2589.00,99.19
2588.00,99.20
2587.00,99.21
2586.00,99.21
2585.00,99.21
2584.00,99.22
2583.00,99.23
2582.00,99.24
2581.00,99.24
2580.00,99.25
2579.00,99.26
2578.00,99.27
2577.00,99.28
2576.00,99.29
2575.00,99.29
2574.00,99.30
2573.00,99.31
2572.00,99.31
2571.00,99.32
2570.00,99.32
2569.00,99.33
2568.00,99.33
2567.00,99.34
2566.00,99.35
2565.00,99.35
2564.00,99.36
2563.00,99.36
2562.00,99.36
2561.00,99.37
2560.00,99.38
2559.00,99.38
2558.00,99.38
2557.00,99.38
2556.00,99.38
2555.00,99.38
2554.00,99.39
2553.00,99.39
2552.00,99.40
2551.00,99.42
2550.00,99.43
2549.00,99.43
2548.00,99.44
2547.00,99.44
2546.00,99.44
2545.00,99.45
2544.00,99.45
2543.00,99.46
2542.00,99.47
2541.00,99.47
2540.00,99.47
2539.00,99.48
2538.00,99.48
2537.00,99.49
2536.00,99.49
2535.00,99.49
2534.00,99.49
2533.00,99.49
2532.00,99.48
2531.00,99.48
2530.00,99.47
2529.00,99.47
2528.00,99.48
2527.00,99.49
2526.00,99.50
2525.00,99.51
2524.00,99.51
2523.00,99.51
2522.00,99.52
2521.00,99.52
2520.00,99.53
2519.00,99.53
2518.00,99.54
2517.00,99.55
2516.00,99.55
2515.00,99.56
2514.00,99.56
2513.00,99.57
2512.00,99.58
2511.00,99.58
2510.00,99.58
2509.00,99.58
2508.00,99.58
2507.00,99.57
2506.00,99.57
2505.00,99.58
2504.00,99.58
2503.00,99.58
2502.00,99.58
2501.00,99.59
2500.00,99.59
2499.00,99.60
2498.00,99.60
2497.00,99.60
2496.00,99.60
2495.00,99.60
2494.00,99.60
2493.00,99.60
2492.00,99.60
2491.00,99.61
2490.00,99.61
2489.00,99.61
2488.00,99.61
2487.00,99.61
2486.00,99.62
2485.00,99.62
2484.00,99.63
2483.00,99.63
2482.00,99.62
2481.00,99.62
2480.00,99.61
2479.00,99.61
2478.00,99.62
2477.00,99.62
2476.00,99.62
2475.00,99.62
2474.00,99.62
2473.00,99.63
2472.00,99.63
2471.00,99.64
2470.00,99.65
2469.00,99.65
2468.00,99.65
2467.00,99.65
2466.00,99.65
2465.00,99.65
2464.00,99.65
2463.00,99.65
2462.00,99.65
2461.00,99.65
2460.00,99.65
2459.00,99.64
2458.00,99.64
2457.00,99.63
2456.00,99.63
2455.00,99.63
2454.00,99.63
2453.00,99.63
2452.00,99.63
2451.00,99.64
2450.00,99.64
2449.00,99.64
2448.00,99.64
2447.00,99.64
2446.00,99.64
2445.00,99.65
2444.00,99.65
2443.00,99.65
2442.00,99.65
2441.00,99.65
2440.00,99.65
2439.00,99.66
2438.00,99.66
2437.00,99.66
2436.00,99.66
2435.00,99.66
2434.00,99.66
2433.00,99.66
2432.00,99.66
2431.00,99.66
2430.00,99.66
2429.00,99.66
2428.00,99.66
2427.00,99.66
2426.00,99.65
2425.00,99.65
2424.00,99.65
2423.00,99.65
2422.00,99.65
2421.00,99.65
2420.00,99.64
2419.00,99.65
2418.00,99.65
2417.00,99.65
2416.00,99.65
2415.00,99.64
2414.00,99.64
2413.00,99.65
2412.00,99.65
2411.00,99.66
2410.00,99.66
2409.00,99.66
2408.00,99.67
2407.00,99.67
2406.00,99.68
2405.00,99.69
2404.00,99.70
2403.00,99.70
2402.00,99.71
2401.00,99.71
2400.00,99.71
2399.00,99.71
2398.00,99.71
2397.00,99.71
2396.00,99.72
2395.00,99.72
2394.00,99.72
2393.00,99.72
2392.00,99.72
2391.00,99.72
2390.00,99.72
2389.00,99.72
2388.00,99.72
2387.00,99.72
2386.00,99.72
2385.00,99.71
2384.00,99.71
2383.00,99.71
2382.00,99.71
2381.00,99.71
2380.00,99.71
2379.00,99.71
2378.00,99.72
2377.00,99.72
2376.00,99.72
2375.00,99.71
2374.00,99.70
2373.00,99.70
2372.00,99.70
2371.00,99.70
2370.00,99.69
2369.00,99.68
2368.00,99.67
2367.00,99.66
2366.00,99.65
2365.00,99.65
2364.00,99.64
2363.00,99.63
2362.00,99.62
2361.00,99.60
2360.00,99.58
2359.00,99.58
2358.00,99.58
2357.00,99.59
2356.00,99.59
2355.00,99.59
2354.00,99.58
2353.00,99.57
2352.00,99.56
2351.00,99.55
2350.00,99.55
2349.00,99.55
2348.00,99.55
2347.00,99.54
2346.00,99.53
2345.00,99.50
2344.00,99.48
2343.00,99.47
2342.00,99.46
2341.00,99.45
2340.00,99.44
2339.00,99.43
2338.00,99.42
2337.00,99.42
2336.00,99.43
2335.00,99.43
2334.00,99.43
2333.00,99.43
2332.00,99.42
2331.00,99.42
2330.00,99.41
2329.00,99.39
2328.00,99.36
2327.00,99.29
2326.00,99.22
2325.00,99.14
2324.00,99.09
2323.00,99.08
2322.00,99.11
2321.00,99.15
2320.00,99.19
2319.00,99.23
2318.00,99.26
2317.00,99.28
2316.00,99.30
2315.00,99.30
2314.00,99.31
2313.00,99.31
2312.00,99.31
2311.00,99.32
2310.00,99.33
2309.00,99.34
2308.00,99.35
2307.00,99.36
2306.00,99.37
2305.00,99.38
2304.00,99.38
2303.00,99.39
2302.00,99.39
2301.00,99.39
2300.00,99.39
2299.00,99.39
2298.00,99.39
2297.00,99.38
2296.00,99.38
2295.00,99.37
2294.00,99.36
2293.00,99.34
2292.00,99.33
2291.00,99.31
2290.00,99.30
2289.00,99.29
2288.00,99.29
2287.00,99.28
2286.00,99.28
2285.00,99.28
2284.00,99.28
2283.00,99.29
2282.00,99.30
2281.00,99.32
2280.00,99.33
2279.00,99.35
2278.00,99.35
2277.00,99.36
2276.00,99.37
2275.00,99.38
2274.00,99.39
2273.00,99.40
2272.00,99.41
2271.00,99.41
2270.00,99.41
2269.00,99.41
2268.00,99.42
2267.00,99.43
2266.00,99.45
2265.00,99.46
2264.00,99.48
2263.00,99.48
2262.00,99.48
2261.00,99.48
2260.00,99.47
2259.00,99.47
2258.00,99.47
2257.00,99.47
2256.00,99.48
2255.00,99.50
2254.00,99.51
2253.00,99.51
2252.00,99.50
2251.00,99.50
2250.00,99.50
2249.00,99.50
2248.00,99.50
2247.00,99.50
2246.00,99.49
2245.00,99.48
2244.00,99.47
2243.00,99.47
2242.00,99.47
2241.00,99.47
2240.00,99.47
2239.00,99.48
2238.00,99.48
2237.00,99.49
2236.00,99.49
2235.00,99.50
2234.00,99.50
2233.00,99.50
2232.00,99.50
2231.00,99.50
2230.00,99.51
2229.00,99.51
2228.00,99.51
2227.00,99.51
2226.00,99.51
2225.00,99.50
2224.00,99.50
2223.00,99.50
2222.00,99.50
2221.00,99.50
2220.00,99.50
2219.00,99.50
2218.00,99.50
2217.00,99.50
2216.00,99.50
2215.00,99.50
2214.00,99.50
2213.00,99.50
2212.00,99.50
2211.00,99.50
2210.00,99.50
2209.00,99.49
2208.00,99.48
2207.00,99.47
2206.00,99.47
2205.00,99.48
2204.00,99.48
2203.00,99.47
2202.00,99.45
2201.00,99.44
2200.00,99.43
2199.00,99.44
2198.00,99.44
2197.00,99.44
2196.00,99.42
2195.00,99.41
2194.00,99.39
2193.00,99.38
2192.00,99.37
2191.00,99.36
2190.00,99.36
2189.00,99.34
2188.00,99.32
2187.00,99.31
2186.00,99.31
2185.00,99.31
2184.00,99.34
2183.00,99.38
2182.00,99.42
2181.00,99.45
2180.00,99.47
2179.00,99.47
2178.00,99.46
2177.00,99.45
2176.00,99.45
2175.00,99.47
2174.00,99.48
2173.00,99.47
2172.00,99.45
2171.00,99.41
2170.00,99.36
2169.00,99.28
2168.00,99.21
2167.00,99.16
2166.00,99.14
2165.00,99.12
2164.00,99.09
2163.00,99.06
2162.00,99.04
2161.00,99.07
2160.00,99.21
2159.00,99.46
2158.00,99.73
2157.00,99.91
2156.00,99.99
2155.00,99.99
2154.00,99.96
2153.00,99.91
2152.00,99.87
2151.00,99.84
2150.00,99.81
2149.00,99.79
2148.00,99.79
2147.00,99.79
2146.00,99.80
2145.00,99.80
2144.00,99.79
2143.00,99.80
2142.00,99.81
2141.00,99.81
2140.00,99.81
2139.00,99.82
2138.00,99.82
2137.00,99.84
2136.00,99.87
2135.00,99.92
2134.00,99.97
2133.00,99.99
2132.00,99.99
2131.00,99.97
2130.00,99.94
2129.00,99.91
2128.00,99.88
2127.00,99.85
2126.00,99.83
2125.00,99.80
2124.00,99.78
2123.00,99.77
2122.00,99.75
2121.00,99.73
2120.00,99.71
2119.00,99.69
2118.00,99.67
2117.00,99.65
2116.00,99.63
2115.00,99.61
2114.00,99.59
2113.00,99.59
2112.00,99.59
2111.00,99.59
2110.00,99.59
2109.00,99.59
2108.00,99.59
2107.00,99.59
2106.00,99.59
2105.00,99.59
2104.00,99.58
2103.00,99.59
2102.00,99.59
2101.00,99.59
2100.00,99.58
2099.00,99.58
2098.00,99.59
2097.00,99.61
2096.00,99.64
2095.00,99.67
2094.00,99.70
2093.00,99.70
2092.00,99.68
2091.00,99.66
2090.00,99.64
2089.00,99.62
2088.00,99.60
2087.00,99.58
2086.00,99.56
2085.00,99.55
2084.00,99.54
2083.00,99.54
2082.00,99.52
2081.00,99.51
2080.00,99.50
2079.00,99.49
2078.00,99.48
2077.00,99.47
2076.00,99.47
2075.00,99.48
2074.00,99.48
2073.00,99.49
2072.00,99.49
2071.00,99.50
2070.00,99.50
2069.00,99.50
2068.00,99.49
2067.00,99.49
2066.00,99.49
2065.00,99.49
2064.00,99.49
2063.00,99.51
2062.00,99.51
2061.00,99.52
2060.00,99.52
2059.00,99.51
2058.00,99.49
2057.00,99.47
2056.00,99.45
2055.00,99.45
2054.00,99.44
2053.00,99.39
2052.00,99.31
2051.00,99.24
2050.00,99.20
2049.00,99.22
2048.00,99.27
2047.00,99.32
2046.00,99.35
2045.00,99.36
2044.00,99.35
2043.00,99.32
2042.00,99.30
2041.00,99.28
2040.00,99.27
2039.00,99.26
2038.00,99.25
2037.00,99.23
2036.00,99.23
2035.00,99.25
2034.00,99.28
2033.00,99.30
2032.00,99.32
2031.00,99.33
2030.00,99.34
2029.00,99.35
2028.00,99.37
2027.00,99.38
2026.00,99.39
2025.00,99.39
2024.00,99.38
2023.00,99.37
2022.00,99.36
2021.00,99.35
2020.00,99.35
2019.00,99.35
2018.00,99.35
2017.00,99.35
2016.00,99.35
2015.00,99.35
2014.00,99.36
2013.00,99.37
2012.00,99.38
2011.00,99.39
2010.00,99.40
2009.00,99.41
2008.00,99.45
2007.00,99.51
2006.00,99.57
2005.00,99.62
2004.00,99.64
2003.00,99.62
2002.00,99.60
2001.00,99.56
2000.00,99.54
1999.00,99.52
1998.00,99.51
1997.00,99.50
1996.00,99.49
1995.00,99.49
1994.00,99.47
1993.00,99.45
1992.00,99.44
1991.00,99.43
1990.00,99.42
1989.00,99.40
1988.00,99.38
1987.00,99.36
1986.00,99.35
1985.00,99.33
1984.00,99.31
1983.00,99.29
1982.00,99.23
1981.00,99.17
1980.00,99.13
1979.00,99.16
1978.00,99.24
1977.00,99.35
1976.00,99.45
1975.00,99.53
1974.00,99.58
1973.00,99.59
1972.00,99.59
1971.00,99.58
1970.00,99.58
1969.00,99.57
1968.00,99.57
1967.00,99.59
1966.00,99.60
1965.00,99.60
1964.00,99.60
1963.00,99.62
1962.00,99.64
1961.00,99.67
1960.00,99.70
1959.00,99.72
1958.00,99.73
1957.00,99.73
1956.00,99.71
1955.00,99.70
1954.00,99.69
1953.00,99.68
1952.00,99.68
1951.00,99.68
1950.00,99.67
1949.00,99.66
1948.00,99.65
1947.00,99.64
1946.00,99.65
1945.00,99.65
1944.00,99.66
1943.00,99.67
1942.00,99.68
1941.00,99.69
1940.00,99.69
1939.00,99.69
1938.00,99.70
1937.00,99.70
1936.00,99.70
1935.00,99.71
1934.00,99.71
1933.00,99.71
1932.00,99.71
1931.00,99.71
1930.00,99.71
1929.00,99.71
1928.00,99.71
1927.00,99.71
1926.00,99.71
1925.00,99.71
1924.00,99.71
1923.00,99.70
1922.00,99.69
1921.00,99.67
1920.00,99.65
1919.00,99.65
1918.00,99.64
1917.00,99.64
1916.00,99.63
1915.00,99.63
1914.00,99.64
1913.00,99.64
1912.00,99.63
1911.00,99.63
1910.00,99.62
1909.00,99.62
1908.00,99.62
1907.00,99.62
1906.00,99.62
1905.00,99.62
1904.00,99.60
1903.00,99.60
1902.00,99.60
1901.00,99.59
1900.00,99.59
1899.00,99.58
1898.00,99.58
1897.00,99.57
1896.00,99.58
1895.00,99.59
1894.00,99.60
1893.00,99.60
1892.00,99.60
1891.00,99.60
1890.00,99.61
1889.00,99.62
1888.00,99.63
1887.00,99.65
1886.00,99.67
1885.00,99.67
1884.00,99.68
1883.00,99.68
1882.00,99.69
1881.00,99.69
1880.00,99.69
1879.00,99.69
1878.00,99.69
1877.00,99.69
1876.00,99.69
1875.00,99.69
1874.00,99.70
1873.00,99.70
1872.00,99.70
1871.00,99.71
1870.00,99.72
1869.00,99.73
1868.00,99.72
1867.00,99.71
1866.00,99.71
1865.00,99.72
1864.00,99.72
1863.00,99.73
1862.00,99.73
1861.00,99.74
1860.00,99.74
1859.00,99.74
1858.00,99.74
1857.00,99.74
1856.00,99.74
1855.00,99.74
1854.00,99.75
1853.00,99.74
1852.00,99.74
1851.00,99.75
1850.00,99.75
1849.00,99.75
1848.00,99.75
1847.00,99.75
1846.00,99.74
1845.00,99.74
1844.00,99.74
1843.00,99.74
1842.00,99.75
1841.00,99.75
1840.00,99.75
1839.00,99.75
1838.00,99.74
1837.00,99.74
1836.00,99.74
1835.00,99.74
1834.00,99.74
1833.00,99.74
1832.00,99.73
1831.00,99.73
1830.00,99.73
1829.00,99.73
1828.00,99.72
1827.00,99.72
1826.00,99.72
1825.00,99.71
1824.00,99.70
1823.00,99.70
1822.00,99.70
1821.00,99.70
1820.00,99.71
1819.00,99.73
1818.00,99.75
1817.00,99.77
1816.00,99.77
1815.00,99.76
1814.00,99.75
1813.00,99.73
1812.00,99.72
1811.00,99.71
1810.00,99.71
1809.00,99.71
1808.00,99.70
1807.00,99.70
1806.00,99.70
1805.00,99.70
1804.00,99.70
1803.00,99.70
1802.00,99.70
1801.00,99.70
1800.00,99.69
1799.00,99.69
1798.00,99.69
1797.00,99.69
1796.00,99.69
1795.00,99.69
1794.00,99.69
1793.00,99.69
1792.00,99.69
1791.00,99.69
1790.00,99.69
1789.00,99.68
1788.00,99.68
1787.00,99.68
1786.00,99.68
1785.00,99.68
1784.00,99.69
1783.00,99.69
1782.00,99.69
1781.00,99.68
1780.00,99.68
1779.00,99.68
1778.00,99.69
1777.00,99.69
1776.00,99.69
1775.00,99.70
1774.00,99.70
1773.00,99.69
1772.00,99.68
1771.00,99.68
1770.00,99.68
1769.00,99.68
1768.00,99.68
1767.00,99.68
1766.00,99.68
1765.00,99.68
1764.00,99.68
1763.00,99.68
1762.00,99.68
1761.00,99.67
1760.00,99.66
1759.00,99.66
1758.00,99.66
1757.00,99.66
1756.00,99.65
1755.00,99.65
1754.00,99.64
1753.00,99.64
1752.00,99.63
1751.00,99.63
1750.00,99.63
1749.00,99.62
1748.00,99.61
1747.00,99.60
1746.00,99.59
1745.00,99.59
1744.00,99.58
1743.00,99.57
1742.00,99.57
1741.00,99.57
1740.00,99.57
1739.00,99.56
1738.00,99.55
1737.00,99.54
1736.00,99.53
1735.00,99.52
1734.00,99.51
1733.00,99.50
1732.00,99.48
1731.00,99.47
1730.00,99.45
1729.00,99.42
1728.00,99.39
1727.00,99.35
1726.00,99.30
1725.00,99.25
1724.00,99.21
1723.00,99.18
1722.00,99.18
1721.00,99.19
1720.00,99.21
1719.00,99.24
1718.00,99.29
1717.00,99.32
1716.00,99.36
1715.00,99.39
1714.00,99.42
1713.00,99.44
1712.00,99.46
1711.00,99.47
1710.00,99.49
1709.00,99.51
1708.00,99.52
1707.00,99.53
1706.00,99.54
1705.00,99.54
1704.00,99.54
1703.00,99.55
1702.00,99.55
1701.00,99.56
1700.00,99.56
1699.00,99.56
1698.00,99.57
1697.00,99.57
1696.00,99.58
1695.00,99.59
1694.00,99.59
1693.00,99.59
1692.00,99.59
1691.00,99.59
1690.00,99.59
1689.00,99.59
1688.00,99.58
1687.00,99.58
1686.00,99.58
1685.00,99.58
1684.00,99.57
1683.00,99.57
1682.00,99.57
1681.00,99.56
1680.00,99.56
1679.00,99.56
1678.00,99.56
1677.00,99.56
1676.00,99.56
1675.00,99.56
1674.00,99.56
1673.00,99.55
1672.00,99.54
1671.00,99.54
1670.00,99.54
1669.00,99.53
1668.00,99.53
1667.00,99.53
1666.00,99.53
1665.00,99.53
1664.00,99.52
1663.00,99.52
1662.00,99.51
1661.00,99.50
1660.00,99.50
1659.00,99.50
1658.00,99.51
1657.00,99.50
1656.00,99.49
1655.00,99.48
1654.00,99.47
1653.00,99.45
1652.00,99.44
1651.00,99.44
1650.00,99.43
1649.00,99.42
1648.00,99.41
1647.00,99.40
1646.00,99.40
1645.00,99.40
1644.00,99.41
1643.00,99.42
1642.00,99.43
1641.00,99.44
1640.00,99.44
1639.00,99.44
1638.00,99.44
1637.00,99.44
1636.00,99.44
1635.00,99.45
1634.00,99.45
1633.00,99.45
1632.00,99.45
1631.00,99.45
1630.00,99.46
1629.00,99.45
1628.00,99.45
1627.00,99.46
1626.00,99.46
1625.00,99.46
1624.00,99.46
1623.00,99.47
1622.00,99.47
1621.00,99.47
1620.00,99.47
1619.00,99.47
1618.00,99.48
1617.00,99.48
1616.00,99.47
1615.00,99.47
1614.00,99.47
1613.00,99.47
1612.00,99.46
1611.00,99.46
1610.00,99.46
1609.00,99.46
1608.00,99.45
1607.00,99.45
1606.00,99.45
1605.00,99.45
1604.00,99.45
1603.00,99.45
1602.00,99.45
1601.00,99.45
1600.00,99.44
1599.00,99.44
1598.00,99.45
1597.00,99.44
1596.00,99.44
1595.00,99.44
1594.00,99.43
1593.00,99.43
1592.00,99.42
1591.00,99.42
1590.00,99.43
1589.00,99.42
1588.00,99.42
1587.00,99.42
1586.00,99.42
1585.00,99.42
1584.00,99.42
1583.00,99.42
1582.00,99.42
1581.00,99.42
1580.00,99.41
1579.00,99.41
1578.00,99.41
1577.00,99.41
1576.00,99.41
1575.00,99.42
1574.00,99.42
1573.00,99.42
1572.00,99.41
1571.00,99.41
1570.00,99.42
1569.00,99.41
1568.00,99.41
1567.00,99.42
1566.00,99.42
1565.00,99.42
1564.00,99.41
1563.00,99.41
1562.00,99.41
1561.00,99.40
1560.00,99.40
1559.00,99.40
1558.00,99.41
1557.00,99.40
1556.00,99.38
1555.00,99.38
1554.00,99.38
1553.00,99.36
1552.00,99.35
1551.00,99.35
1550.00,99.35
1549.00,99.34
1548.00,99.33
1547.00,99.33
1546.00,99.32
1545.00,99.32
1544.00,99.31
1543.00,99.31
1542.00,99.32
1541.00,99.32
1540.00,99.32
1539.00,99.33
1538.00,99.33
1537.00,99.33
1536.00,99.32
1535.00,99.31
1534.00,99.31
1533.00,99.30
1532.00,99.29
1531.00,99.28
1530.00,99.28
1529.00,99.27
1528.00,99.26
1527.00,99.26
1526.00,99.26
1525.00,99.24
1524.00,99.23
1523.00,99.22
1522.00,99.22
1521.00,99.20
1520.00,99.18
1519.00,99.17
1518.00,99.17
1517.00,99.16
1516.00,99.14
1515.00,99.13
1514.00,99.12
1513.00,99.10
1512.00,99.08
1511.00,99.08
1510.00,99.07
1509.00,99.05
1508.00,99.01
1507.00,98.99
1506.00,98.97
1505.00,98.94
1504.00,98.91
1503.00,98.90
1502.00,98.90
1501.00,98.87
1500.00,98.83
1499.00,98.81
1498.00,98.78
1497.00,98.72
1496.00,98.66
1495.00,98.62
1494.00,98.59
1493.00,98.54
1492.00,98.47
1491.00,98.42
1490.00,98.36
1489.00,98.25
1488.00,98.13
1487.00,98.03
1486.00,97.92
1485.00,97.76
1484.00,97.56
1483.00,97.34
1482.00,97.03
1481.00,96.60
1480.00,96.03
1479.00,95.25
1478.00,93.93
1477.00,91.68
1476.00,88.40
1475.00,84.30
1474.00,79.71
1473.00,75.53
1472.00,72.96
1471.00,72.16
1470.00,72.25
1469.00,72.59
1468.00,73.02
1467.00,73.58
1466.00,74.35
1465.00,75.45
1464.00,76.90
1463.00,78.60
1462.00,80.41
1461.00,82.26
1460.00,84.00
1459.00,85.52
1458.00,86.80
1457.00,87.92
1456.00,88.84
1455.00,89.59
1454.00,90.30
1453.00,91.06
1452.00,91.82
1451.00,92.46
1450.00,92.97
1449.00,93.39
1448.00,93.75
1447.00,94.01
1446.00,94.21
1445.00,94.38
1444.00,94.55
1443.00,94.69
1442.00,94.83
1441.00,94.99
1440.00,95.14
1439.00,95.29
1438.00,95.46
1437.00,95.68
1436.00,95.91
1435.00,96.11
1434.00,96.29
1433.00,96.50
1432.00,96.73
1431.00,96.97
1430.00,97.21
1429.00,97.44
1428.00,97.65
1427.00,97.81
1426.00,97.96
1425.00,98.11
1424.00,98.25
1423.00,98.35
1422.00,98.42
1421.00,98.50
1420.00,98.58
1419.00,98.63
1418.00,98.66
1417.00,98.70
1416.00,98.73
1415.00,98.74
1414.00,98.75
1413.00,98.77
1412.00,98.79
1411.00,98.81
1410.00,98.83
1409.00,98.85
1408.00,98.88
1407.00,98.89
1406.00,98.90
1405.00,98.92
1404.00,98.93
1403.00,98.94
1402.00,98.94
1401.00,98.95
1400.00,98.97
1399.00,98.97
1398.00,98.97
1397.00,98.97
1396.00,98.97
1395.00,98.96
1394.00,98.95
1393.00,98.94
1392.00,98.94
1391.00,98.92
1390.00,98.89
1389.00,98.87
1388.00,98.83
1387.00,98.77
1386.00,98.69
1385.00,98.58
1384.00,98.43
1383.00,98.22
1382.00,97.96
1381.00,97.68
1380.00,97.40
1379.00,97.18
1378.00,97.05
1377.00,97.04
1376.00,97.11
1375.00,97.21
1374.00,97.28
1373.00,97.32
1372.00,97.32
1371.00,97.29
1370.00,97.28
1369.00,97.29
1368.00,97.33
1367.00,97.39
1366.00,97.46
1365.00,97.55
1364.00,97.65
1363.00,97.74
1362.00,97.81
1361.00,97.87
1360.00,97.92
1359.00,97.95
1358.00,97.96
1357.00,97.97
1356.00,97.97
1355.00,97.95
1354.00,97.93
1353.00,97.92
1352.00,97.92
1351.00,97.94
1350.00,97.96
1349.00,98.00
1348.00,98.04
1347.00,98.09
1346.00,98.13
1345.00,98.17
1344.00,98.22
1343.00,98.25
1342.00,98.29
1341.00,98.33
1340.00,98.37
1339.00,98.42
1338.00,98.46
1337.00,98.52
1336.00,98.58
1335.00,98.63
1334.00,98.68
1333.00,98.71
1332.00,98.74
1331.00,98.75
1330.00,98.76
1329.00,98.76
1328.00,98.76
1327.00,98.75
1326.00,98.74
1325.00,98.73
1324.00,98.72
1323.00,98.70
1322.00,98.68
1321.00,98.65
1320.00,98.62
1319.00,98.59
1318.00,98.56
1317.00,98.53
1316.00,98.50
1315.00,98.47
1314.00,98.43
1313.00,98.40
1312.00,98.37
1311.00,98.33
1310.00,98.30
1309.00,98.28
1308.00,98.26
1307.00,98.24
1306.00,98.23
1305.00,98.22
1304.00,98.22
1303.00,98.23
1302.00,98.23
1301.00,98.24
1300.00,98.25
1299.00,98.27
1298.00,98.28
1297.00,98.30
1296.00,98.33
1295.00,98.35
1294.00,98.39
1293.00,98.42
1292.00,98.46
1291.00,98.49
1290.00,98.52
1289.00,98.55
1288.00,98.57
1287.00,98.60
1286.00,98.62
1285.00,98.64
1284.00,98.65
1283.00,98.67
1282.00,98.68
1281.00,98.69
1280.00,98.71
1279.00,98.72
1278.00,98.72
1277.00,98.73
1276.00,98.74
1275.00,98.74
1274.00,98.75
1273.00,98.76
1272.00,98.78
1271.00,98.79
1270.00,98.80
1269.00,98.81
1268.00,98.82
1267.00,98.83
1266.00,98.84
1265.00,98.85
1264.00,98.86
1263.00,98.87
1262.00,98.88
1261.00,98.89
1260.00,98.91
1259.00,98.93
1258.00,98.95
1257.00,98.98
1256.00,99.00
1255.00,99.02
1254.00,99.04
1253.00,99.07
1252.00,99.09
1251.00,99.12
1250.00,99.14
1249.00,99.17
1248.00,99.20
1247.00,99.23
1246.00,99.25
1245.00,99.27
1244.00,99.29
1243.00,99.30
1242.00,99.32
1241.00,99.33
1240.00,99.35
1239.00,99.35
1238.00,99.35
1237.00,99.35
1236.00,99.35
1235.00,99.35
1234.00,99.35
1233.00,99.35
1232.00,99.36
1231.00,99.35
1230.00,99.35
1229.00,99.34
1228.00,99.34
1227.00,99.33
1226.00,99.32
1225.00,99.32
1224.00,99.32
1223.00,99.32
1222.00,99.32
1221.00,99.32
1220.00,99.31
1219.00,99.30
1218.00,99.30
1217.00,99.29
1216.00,99.29
1215.00,99.29
1214.00,99.29
1213.00,99.29
1212.00,99.28
1211.00,99.28
1210.00,99.27
1209.00,99.27
1208.00,99.27
1207.00,99.27
1206.00,99.26
1205.00,99.26
1204.00,99.26
1203.00,99.26
1202.00,99.26
1201.00,99.26
1200.00,99.26
1199.00,99.25
1198.00,99.25
1197.00,99.24
1196.00,99.24
1195.00,99.23
1194.00,99.23
1193.00,99.22
1192.00,99.22
1191.00,99.22
1190.00,99.22
1189.00,99.22
1188.00,99.22
1187.00,99.21
1186.00,99.20
1185.00,99.20
1184.00,99.19
1183.00,99.18
1182.00,99.17
1181.00,99.16
1180.00,99.15
1179.00,99.15
1178.00,99.15
1177.00,99.15
1176.00,99.15
1175.00,99.15
1174.00,99.14
1173.00,99.15
1172.00,99.14
1171.00,99.14
1170.00,99.14
1169.00,99.14
1168.00,99.16
1167.00,99.17
1166.00,99.17
1165.00,99.18
1164.00,99.17
1163.00,99.17
1162.00,99.17
1161.00,99.17
1160.00,99.16
1159.00,99.16
1158.00,99.15
1157.00,99.14
1156.00,99.15
1155.00,99.14
1154.00,99.14
1153.00,99.13
1152.00,99.12
1151.00,99.11
1150.00,99.11
1149.00,99.11
1148.00,99.11
1147.00,99.11
1146.00,99.10
1145.00,99.09
1144.00,99.09
1143.00,99.08
1142.00,99.08
1141.00,99.09
1140.00,99.09
1139.00,99.08
1138.00,99.07
1137.00,99.06
1136.00,99.06
1135.00,99.06
1134.00,99.06
1133.00,99.06
1132.00,99.06
1131.00,99.05
1130.00,99.04
1129.00,99.04
1128.00,99.05
1127.00,99.05
1126.00,99.05
1125.00,99.05
1124.00,99.06
1123.00,99.06
1122.00,99.06
1121.00,99.06
1120.00,99.06
1119.00,99.06
1118.00,99.06
1117.00,99.06
1116.00,99.06
1115.00,99.06
1114.00,99.05
1113.00,99.04
1112.00,99.03
1111.00,99.02
1110.00,99.01
1109.00,99.01
1108.00,99.01
1107.00,99.01
1106.00,99.01
1105.00,99.00
1104.00,99.00
1103.00,99.00
1102.00,99.00
1101.00,98.99
1100.00,98.99
1099.00,98.98
1098.00,98.96
1097.00,98.95
1096.00,98.94
1095.00,98.93
1094.00,98.91
1093.00,98.90
1092.00,98.89
1091.00,98.87
1090.00,98.86
1089.00,98.84
1088.00,98.83
1087.00,98.82
1086.00,98.80
1085.00,98.79
1084.00,98.79
1083.00,98.79
1082.00,98.79
1081.00,98.79
1080.00,98.79
1079.00,98.80
1078.00,98.80
1077.00,98.81
1076.00,98.82
1075.00,98.83
1074.00,98.82
1073.00,98.83
1072.00,98.83
1071.00,98.84
1070.00,98.84
1069.00,98.84
1068.00,98.83
1067.00,98.82
1066.00,98.81
1065.00,98.80
1064.00,98.80
1063.00,98.79
1062.00,98.78
1061.00,98.79
1060.00,98.79
1059.00,98.79
1058.00,98.79
1057.00,98.79
1056.00,98.78
1055.00,98.76
1054.00,98.73
1053.00,98.70
1052.00,98.68
1051.00,98.66
1050.00,98.64
1049.00,98.62
1048.00,98.62
1047.00,98.61
1046.00,98.60
1045.00,98.60
1044.00,98.60
1043.00,98.61
1042.00,98.62
1041.00,98.63
1040.00,98.64
1039.00,98.65
1038.00,98.66
1037.00,98.66
1036.00,98.67
1035.00,98.68
1034.00,98.68
1033.00,98.69
1032.00,98.69
1031.00,98.69
1030.00,98.68
1029.00,98.67
1028.00,98.65
1027.00,98.62
1026.00,98.59
1025.00,98.57
1024.00,98.54
1023.00,98.50
1022.00,98.47
1021.00,98.44
1020.00,98.43
1019.00,98.42
1018.00,98.41
1017.00,98.41
1016.00,98.43
1015.00,98.45
1014.00,98.47
1013.00,98.51
1012.00,98.56
1011.00,98.60
1010.00,98.64
1009.00,98.69
1008.00,98.73
1007.00,98.78
1006.00,98.81
1005.00,98.85
1004.00,98.89
1003.00,98.91
1002.00,98.94
1001.00,98.96
1000.00,98.98
999.00,99.00
998.00,99.01
997.00,99.03
996.00,99.04
995.00,99.05
994.00,99.06
993.00,99.07
992.00,99.07
991.00,99.08
990.00,99.09
989.00,99.10
988.00,99.11
987.00,99.12
986.00,99.12
985.00,99.12
984.00,99.13
983.00,99.13
982.00,99.12
981.00,99.13
980.00,99.13
979.00,99.14
978.00,99.14
977.00,99.14
976.00,99.15
975.00,99.15
974.00,99.16
973.00,99.16
972.00,99.17
971.00,99.16
970.00,99.15
969.00,99.14
968.00,99.15
967.00,99.16
966.00,99.17
965.00,99.18
964.00,99.18
963.00,99.18
962.00,99.19
961.00,99.20
960.00,99.21
959.00,99.21
958.00,99.21
957.00,99.20
956.00,99.21
955.00,99.21
954.00,99.22
953.00,99.23
952.00,99.24
951.00,99.25
950.00,99.25
949.00,99.24
948.00,99.24
947.00,99.24
946.00,99.24
945.00,99.24
944.00,99.25
943.00,99.24
942.00,99.24
941.00,99.24
940.00,99.24
939.00,99.25
938.00,99.25
937.00,99.25
936.00,99.26
935.00,99.26
934.00,99.26
933.00,99.25
932.00,99.25
931.00,99.24
930.00,99.23
929.00,99.23
928.00,99.23
927.00,99.23
926.00,99.23
925.00,99.24
924.00,99.25
923.00,99.25
922.00,99.25
921.00,99.26
920.00,99.26
919.00,99.25
918.00,99.23
917.00,99.22
916.00,99.21
915.00,99.21
914.00,99.21
913.00,99.21
912.00,99.20
911.00,99.18
910.00,99.17
909.00,99.17
908.00,99.17
907.00,99.16
906.00,99.15
905.00,99.14
904.00,99.15
903.00,99.15
902.00,99.15
901.00,99.15
900.00,99.14
899.00,99.13
898.00,99.12
897.00,99.11
896.00,99.09
895.00,99.07
894.00,99.05
893.00,99.03
892.00,99.01
891.00,99.00
890.00,98.98
889.00,98.97
888.00,98.97
887.00,98.97
886.00,98.98
885.00,99.01
884.00,99.03
883.00,99.05
882.00,99.08
881.00,99.11
880.00,99.14
879.00,99.15
878.00,99.16
877.00,99.17
876.00,99.18
875.00,99.19
874.00,99.20
873.00,99.21
872.00,99.22
871.00,99.23
870.00,99.24
869.00,99.23
868.00,99.23
867.00,99.23
866.00,99.23
865.00,99.23
864.00,99.23
863.00,99.23
862.00,99.23
861.00,99.23
860.00,99.23
859.00,99.22
858.00,99.20
857.00,99.19
856.00,99.18
855.00,99.18
854.00,99.18
853.00,99.19
852.00,99.20
851.00,99.20
850.00,99.19
849.00,99.19
848.00,99.19
847.00,99.19
846.00,99.19
845.00,99.20
844.00,99.20
843.00,99.19
842.00,99.18
841.00,99.17
840.00,99.17
839.00,99.16
838.00,99.15
837.00,99.15
836.00,99.16
835.00,99.17
834.00,99.17
833.00,99.17
832.00,99.18
831.00,99.18
830.00,99.17
829.00,99.16
828.00,99.15
827.00,99.14
826.00,99.13
825.00,99.12
824.00,99.11
823.00,99.11
822.00,99.11
821.00,99.12
820.00,99.12
819.00,99.12
818.00,99.11
817.00,99.10
816.00,99.09
815.00,99.07
814.00,99.05
813.00,99.03
812.00,99.03
811.00,99.03
810.00,99.03
809.00,99.03
808.00,99.03
807.00,99.03
806.00,99.02
805.00,99.01
804.00,98.99
803.00,98.97
802.00,98.95
801.00,98.95
800.00,98.96
799.00,98.96
798.00,98.96
797.00,98.96
796.00,98.95
795.00,98.94
794.00,98.92
793.00,98.91
792.00,98.91
791.00,98.89
790.00,98.87
789.00,98.85
788.00,98.83
787.00,98.81
786.00,98.79
785.00,98.78
784.00,98.77
783.00,98.75
782.00,98.72
781.00,98.71
780.00,98.70
779.00,98.69
778.00,98.67
777.00,98.64
776.00,98.61
775.00,98.59
774.00,98.57
773.00,98.54
772.00,98.52
771.00,98.51
770.00,98.49
769.00,98.48
768.00,98.47
767.00,98.45
766.00,98.43
765.00,98.42
764.00,98.40
763.00,98.40
762.00,98.39
761.00,98.38
760.00,98.36
759.00,98.34
758.00,98.31
757.00,98.28
756.00,98.24
755.00,98.20
754.00,98.15
753.00,98.10
752.00,98.05
751.00,98.00
750.00,97.95
749.00,97.90
748.00,97.85
747.00,97.79
746.00,97.72
745.00,97.63
744.00,97.53
743.00,97.42
742.00,97.29
741.00,97.15
740.00,96.98
739.00,96.78
738.00,96.54
737.00,96.22
736.00,95.77
735.00,95.09
734.00,94.04
733.00,92.60
732.00,90.91
731.00,89.33
730.00,88.16
729.00,87.43
728.00,86.91
727.00,86.27
726.00,85.27
725.00,83.85
724.00,81.99
723.00,79.68
722.00,76.92
721.00,73.90
720.00,71.09
719.00,69.10
718.00,68.45
717.00,69.41
716.00,71.94
715.00,75.60
714.00,79.68
713.00,83.45
712.00,86.52
711.00,88.85
710.00,90.60
709.00,91.95
708.00,93.00
707.00,93.85
706.00,94.55
705.00,95.14
704.00,95.63
703.00,96.02
702.00,96.35
701.00,96.64
700.00,96.89
699.00,97.10
698.00,97.29
697.00,97.46
696.00,97.61
695.00,97.74
694.00,97.85
693.00,97.95
692.00,98.03
691.00,98.10
690.00,98.17
689.00,98.23
688.00,98.30
687.00,98.35
686.00,98.40
685.00,98.45
684.00,98.50
683.00,98.54
682.00,98.55
681.00,98.56
680.00,98.58
679.00,98.59
678.00,98.61
677.00,98.64
676.00,98.66
675.00,98.67
674.00,98.65
673.00,98.63
672.00,98.62
671.00,98.59
670.00,98.56
669.00,98.54
668.00,98.58
667.00,98.66
666.00,98.73
665.00,98.80
664.00,98.87
663.00,98.93
662.00,98.96
661.00,98.98
660.00,98.98
659.00,98.99
658.00,99.01
657.00,99.04
656.00,99.07
655.00,99.07
654.00,99.03
653.00,99.00
652.00,98.98
651.00,98.97
650.00,98.96
