Created as New Dataset,PE (low density) granule 5mm GF
cm-1,%T
4000.00,99.79
3999.00,99.79
3998.00,99.79
3997.00,99.79
3996.00,99.79
3995.00,99.80
3994.00,99.80
3993.00,99.80
3992.00,99.80
3991.00,99.79
3990.00,99.79
3989.00,99.79
3988.00,99.79
3987.00,99.79
3986.00,99.79
3985.00,99.79
3984.00,99.79
3983.00,99.79
3982.00,99.79
3981.00,99.79
3980.00,99.79
3979.00,99.79
3978.00,99.79
3977.00,99.79
3976.00,99.79
3975.00,99.79
3974.00,99.79
3973.00,99.79
3972.00,99.79
3971.00,99.79
3970.00,99.79
3969.00,99.79
3968.00,99.79
3967.00,99.79
3966.00,99.79
3965.00,99.79
3964.00,99.80
3963.00,99.80
3962.00,99.80
3961.00,99.80
3960.00,99.79
3959.00,99.79
3958.00,99.79
3957.00,99.79
3956.00,99.79
3955.00,99.79
3954.00,99.79
3953.00,99.78
3952.00,99.78
3951.00,99.78
3950.00,99.78
3949.00,99.78
3948.00,99.78
3947.00,99.78
3946.00,99.78
3945.00,99.78
3944.00,99.78
3943.00,99.78
3942.00,99.78
3941.00,99.78
3940.00,99.78
3939.00,99.78
3938.00,99.78
3937.00,99.78
3936.00,99.78
3935.00,99.78
3934.00,99.77
3933.00,99.77
3932.00,99.76
3931.00,99.76
3930.00,99.76
3929.00,99.76
3928.00,99.76
3927.00,99.76
3926.00,99.76
3925.00,99.76
3924.00,99.76
3923.00,99.77
3922.00,99.76
3921.00,99.76
3920.00,99.76
3919.00,99.76
3918.00,99.76
3917.00,99.76
3916.00,99.76
3915.00,99.76
3914.00,99.75
3913.00,99.76
3912.00,99.76
3911.00,99.76
3910.00,99.76
3909.00,99.76
3908.00,99.76
3907.00,99.75
3906.00,99.75
3905.00,99.75
3904.00,99.75
3903.00,99.74
3902.00,99.74
3901.00,99.74
3900.00,99.74
3899.00,99.74
3898.00,99.75
3897.00,99.75
3896.00,99.75
3895.00,99.75
3894.00,99.76
3893.00,99.76
3892.00,99.76
3891.00,99.76
3890.00,99.76
3889.00,99.76
3888.00,99.76
3887.00,99.76
3886.00,99.76
3885.00,99.76
3884.00,99.75
3883.00,99.75
3882.00,99.75
3881.00,99.75
3880.00,99.76
3879.00,99.76
3878.00,99.75
3877.00,99.75
3876.00,99.75
3875.00,99.75
3874.00,99.75
3873.00,99.75
3872.00,99.75
3871.00,99.75
3870.00,99.76
3869.00,99.76
3868.00,99.76
3867.00,99.76
3866.00,99.76
3865.00,99.76
3864.00,99.76
3863.00,99.77
3862.00,99.77
3861.00,99.76
3860.00,99.76
3859.00,99.77
3858.00,99.77
3857.00,99.77
3856.00,99.77
3855.00,99.77
3854.00,99.76
3853.00,99.76
3852.00,99.75
3851.00,99.75
3850.00,99.75
3849.00,99.75
3848.00,99.75
3847.00,99.76
3846.00,99.76
3845.00,99.76
3844.00,99.76
3843.00,99.76
3842.00,99.75
3841.00,99.75
3840.00,99.75
3839.00,99.75
3838.00,99.75
3837.00,99.75
3836.00,99.76
3835.00,99.76
3834.00,99.76
3833.00,99.75
3832.00,99.75
3831.00,99.75
3830.00,99.75
3829.00,99.75
3828.00,99.75
3827.00,99.75
3826.00,99.75
3825.00,99.74
3824.00,99.74
3823.00,99.73
3822.00,99.74
3821.00,99.74
3820.00,99.75
3819.00,99.75
3818.00,99.75
3817.00,99.75
3816.00,99.75
3815.00,99.75
3814.00,99.75
3813.00,99.75
3812.00,99.75
3811.00,99.75
3810.00,99.75
3809.00,99.75
3808.00,99.74
3807.00,99.74
3806.00,99.75
3805.00,99.75
3804.00,99.74
3803.00,99.75
3802.00,99.75
3801.00,99.76
3800.00,99.75
3799.00,99.75
3798.00,99.74
3797.00,99.74
3796.00,99.75
3795.00,99.75
3794.00,99.75
3793.00,99.75
3792.00,99.75
3791.00,99.75
3790.00,99.75
3789.00,99.76
3788.00,99.76
3787.00,99.76
3786.00,99.75
3785.00,99.75
3784.00,99.75
3783.00,99.74
3782.00,99.74
3781.00,99.74
3780.00,99.75
3779.00,99.75
3778.00,99.76
3777.00,99.76
3776.00,99.76
3775.00,99.76
3774.00,99.76
3773.00,99.76
3772.00,99.76
3771.00,99.76
3770.00,99.75
3769.00,99.75
3768.00,99.75
3767.00,99.75
3766.00,99.74
3765.00,99.74
3764.00,99.74
3763.00,99.74
3762.00,99.74
3761.00,99.74
3760.00,99.74
3759.00,99.74
3758.00,99.74
3757.00,99.74
3756.00,99.74
3755.00,99.74
3754.00,99.74
3753.00,99.74
3752.00,99.74
3751.00,99.74
3750.00,99.74
3749.00,99.75
3748.00,99.74
3747.00,99.74
3746.00,99.73
3745.00,99.73
3744.00,99.73
3743.00,99.73
3742.00,99.73
3741.00,99.73
3740.00,99.74
3739.00,99.74
3738.00,99.75
3737.00,99.75
3736.00,99.75
3735.00,99.75
3734.00,99.75
3733.00,99.75
3732.00,99.75
3731.00,99.74
3730.00,99.74
3729.00,99.73
3728.00,99.73
3727.00,99.73
3726.00,99.74
3725.00,99.74
3724.00,99.73
3723.00,99.74
3722.00,99.74
3721.00,99.75
3720.00,99.75
3719.00,99.75
3718.00,99.75
3717.00,99.75
3716.00,99.75
3715.00,99.75
3714.00,99.75
3713.00,99.76
3712.00,99.76
3711.00,99.76
3710.00,99.76
3709.00,99.75
3708.00,99.75
3707.00,99.75
3706.00,99.75
3705.00,99.74
3704.00,99.74
3703.00,99.74
3702.00,99.75
3701.00,99.75
3700.00,99.75
3699.00,99.75
3698.00,99.74
3697.00,99.74
3696.00,99.75
3695.00,99.75
3694.00,99.75
3693.00,99.75
3692.00,99.74
3691.00,99.74
3690.00,99.74
3689.00,99.74
3688.00,99.74
3687.00,99.74
3686.00,99.74
3685.00,99.74
3684.00,99.74
3683.00,99.74
3682.00,99.74
3681.00,99.74
3680.00,99.74
3679.00,99.74
3678.00,99.74
3677.00,99.74
3676.00,99.74
3675.00,99.74
3674.00,99.74
3673.00,99.73
3672.00,99.73
3671.00,99.73
3670.00,99.74
3669.00,99.74
3668.00,99.75
3667.00,99.75
3666.00,99.75
3665.00,99.75
3664.00,99.75
3663.00,99.75
3662.00,99.75
3661.00,99.75
3660.00,99.74
3659.00,99.74
3658.00,99.73
3657.00,99.73
3656.00,99.73
3655.00,99.72
3654.00,99.72
3653.00,99.71
3652.00,99.71
3651.00,99.71
3650.00,99.71
3649.00,99.71
3648.00,99.71
3647.00,99.71
3646.00,99.71
3645.00,99.72
3644.00,99.72
3643.00,99.72
3642.00,99.72
3641.00,99.73
3640.00,99.73
3639.00,99.73
3638.00,99.73
3637.00,99.73
3636.00,99.73
3635.00,99.74
3634.00,99.74
3633.00,99.74
3632.00,99.74
3631.00,99.73
3630.00,99.73
3629.00,99.72
3628.00,99.72
3627.00,99.72
3626.00,99.72
3625.00,99.73
3624.00,99.73
3623.00,99.73
3622.00,99.72
3621.00,99.72
3620.00,99.72
3619.00,99.72
3618.00,99.72
3617.00,99.71
3616.00,99.71
3615.00,99.70
3614.00,99.70
3613.00,99.69
3612.00,99.68
3611.00,99.67
3610.00,99.67
3609.00,99.66
3608.00,99.66
3607.00,99.66
3606.00,99.66
3605.00,99.66
3604.00,99.67
3603.00,99.67
3602.00,99.67
3601.00,99.68
3600.00,99.68
3599.00,99.69
3598.00,99.70
3597.00,99.71
3596.00,99.72
3595.00,99.72
3594.00,99.73
3593.00,99.74
3592.00,99.75
3591.00,99.76
3590.00,99.76
3589.00,99.76
3588.00,99.77
3587.00,99.77
3586.00,99.78
3585.00,99.78
3584.00,99.79
3583.00,99.79
3582.00,99.80
3581.00,99.80
3580.00,99.80
3579.00,99.80
3578.00,99.79
3577.00,99.80
3576.00,99.80
3575.00,99.81
3574.00,99.81
3573.00,99.81
3572.00,99.81
3571.00,99.81
3570.00,99.80
3569.00,99.80
3568.00,99.80
3567.00,99.80
3566.00,99.80
3565.00,99.80
3564.00,99.80
3563.00,99.81
3562.00,99.81
3561.00,99.81
3560.00,99.82
3559.00,99.82
3558.00,99.81
3557.00,99.81
3556.00,99.81
3555.00,99.81
3554.00,99.80
3553.00,99.80
3552.00,99.80
3551.00,99.80
3550.00,99.80
3549.00,99.80
3548.00,99.80
3547.00,99.80
3546.00,99.80
3545.00,99.80
3544.00,99.80
3543.00,99.80
3542.00,99.80
3541.00,99.80
3540.00,99.80
3539.00,99.80
3538.00,99.80
3537.00,99.80
3536.00,99.80
3535.00,99.80
3534.00,99.80
3533.00,99.80
3532.00,99.80
3531.00,99.80
3530.00,99.80
3529.00,99.80
3528.00,99.80
3527.00,99.80
3526.00,99.80
3525.00,99.79
3524.00,99.79
3523.00,99.79
3522.00,99.79
3521.00,99.79
3520.00,99.79
3519.00,99.79
3518.00,99.79
3517.00,99.79
3516.00,99.79
3515.00,99.79
3514.00,99.79
3513.00,99.79
3512.00,99.79
3511.00,99.79
3510.00,99.79
3509.00,99.79
3508.00,99.79
3507.00,99.78
3506.00,99.78
3505.00,99.79
3504.00,99.79
3503.00,99.79
3502.00,99.79
3501.00,99.79
3500.00,99.79
3499.00,99.79
3498.00,99.79
3497.00,99.79
3496.00,99.80
3495.00,99.79
3494.00,99.79
3493.00,99.79
3492.00,99.79
3491.00,99.79
3490.00,99.79
3489.00,99.79
3488.00,99.79
3487.00,99.79
3486.00,99.79
3485.00,99.79
3484.00,99.79
3483.00,99.78
3482.00,99.78
3481.00,99.78
3480.00,99.78
3479.00,99.78
3478.00,99.78
3477.00,99.78
3476.00,99.78
3475.00,99.78
3474.00,99.78
3473.00,99.78
3472.00,99.78
3471.00,99.78
3470.00,99.78
3469.00,99.78
3468.00,99.78
3467.00,99.78
3466.00,99.77
3465.00,99.77
3464.00,99.77
3463.00,99.77
3462.00,99.77
3461.00,99.77
3460.00,99.78
3459.00,99.78
3458.00,99.78
3457.00,99.78
3456.00,99.78
3455.00,99.77
3454.00,99.77
3453.00,99.77
3452.00,99.77
3451.00,99.77
3450.00,99.77
3449.00,99.77
3448.00,99.77
3447.00,99.78
3446.00,99.78
3445.00,99.78
3444.00,99.78
3443.00,99.78
3442.00,99.77
3441.00,99.77
3440.00,99.77
3439.00,99.77
3438.00,99.77
3437.00,99.77
3436.00,99.77
3435.00,99.78
3434.00,99.78
3433.00,99.78
3432.00,99.78
3431.00,99.78
3430.00,99.78
3429.00,99.77
3428.00,99.77
3427.00,99.77
3426.00,99.77
3425.00,99.77
3424.00,99.77
3423.00,99.77
3422.00,99.77
3421.00,99.77
3420.00,99.76
3419.00,99.76
3418.00,99.76
3417.00,99.76
3416.00,99.77
3415.00,99.77
3414.00,99.77
3413.00,99.77
3412.00,99.78
3411.00,99.77
3410.00,99.77
3409.00,99.77
3408.00,99.77
3407.00,99.77
3406.00,99.77
3405.00,99.78
3404.00,99.77
3403.00,99.77
3402.00,99.77
3401.00,99.77
3400.00,99.77
3399.00,99.77
3398.00,99.77
3397.00,99.76
3396.00,99.76
3395.00,99.76
3394.00,99.76
3393.00,99.76
3392.00,99.76
3391.00,99.76
3390.00,99.76
3389.00,99.76
3388.00,99.76
3387.00,99.76
3386.00,99.76
3385.00,99.76
3384.00,99.76
3383.00,99.76
3382.00,99.76
3381.00,99.76
3380.00,99.77
3379.00,99.77
3378.00,99.76
3377.00,99.76
3376.00,99.76
3375.00,99.76
3374.00,99.76
3373.00,99.76
3372.00,99.76
3371.00,99.77
3370.00,99.77
3369.00,99.77
3368.00,99.77
3367.00,99.76
3366.00,99.76
3365.00,99.76
3364.00,99.76
3363.00,99.75
3362.00,99.75
3361.00,99.75
3360.00,99.75
3359.00,99.76
3358.00,99.76
3357.00,99.76
3356.00,99.76
3355.00,99.76
3354.00,99.77
3353.00,99.77
3352.00,99.77
3351.00,99.77
3350.00,99.77
3349.00,99.77
3348.00,99.77
3347.00,99.77
3346.00,99.77
3345.00,99.78
3344.00,99.78
3343.00,99.78
3342.00,99.78
3341.00,99.78
3340.00,99.78
3339.00,99.78
3338.00,99.77
3337.00,99.77
3336.00,99.77
3335.00,99.78
3334.00,99.78
3333.00,99.77
3332.00,99.77
3331.00,99.77
3330.00,99.77
3329.00,99.78
3328.00,99.78
3327.00,99.78
3326.00,99.78
3325.00,99.78
3324.00,99.78
3323.00,99.78
3322.00,99.78
3321.00,99.77
3320.00,99.77
3319.00,99.78
3318.00,99.78
3317.00,99.78
3316.00,99.79
3315.00,99.79
3314.00,99.79
3313.00,99.79
3312.00,99.79
3311.00,99.79
3310.00,99.78
3309.00,99.78
3308.00,99.78
3307.00,99.78
3306.00,99.78
3305.00,99.78
3304.00,99.78
3303.00,99.78
3302.00,99.78
3301.00,99.78
3300.00,99.79
3299.00,99.79
3298.00,99.79
3297.00,99.79
3296.00,99.79
3295.00,99.79
3294.00,99.79
3293.00,99.78
3292.00,99.78
3291.00,99.78
3290.00,99.78
3289.00,99.79
3288.00,99.79
3287.00,99.79
3286.00,99.79
3285.00,99.79
3284.00,99.78
3283.00,99.78
3282.00,99.78
3281.00,99.79
3280.00,99.79
3279.00,99.79
3278.00,99.79
3277.00,99.79
3276.00,99.79
3275.00,99.79
3274.00,99.78
3273.00,99.78
3272.00,99.78
3271.00,99.78
3270.00,99.78
3269.00,99.78
3268.00,99.78
3267.00,99.78
3266.00,99.79
3265.00,99.79
3264.00,99.79
3263.00,99.79
3262.00,99.79
3261.00,99.79
3260.00,99.79
3259.00,99.79
3258.00,99.79
3257.00,99.79
3256.00,99.78
3255.00,99.78
3254.00,99.78
3253.00,99.78
3252.00,99.78
3251.00,99.79
3250.00,99.79
3249.00,99.79
3248.00,99.79
3247.00,99.79
3246.00,99.78
3245.00,99.78
3244.00,99.78
3243.00,99.78
3242.00,99.78
3241.00,99.78
3240.00,99.78
3239.00,99.78
3238.00,99.79
3237.00,99.79
3236.00,99.79
3235.00,99.79
3234.00,99.79
3233.00,99.78
3232.00,99.78
3231.00,99.78
3230.00,99.78
3229.00,99.79
3228.00,99.79
3227.00,99.79
3226.00,99.79
3225.00,99.79
3224.00,99.79
3223.00,99.79
3222.00,99.79
3221.00,99.78
3220.00,99.78
3219.00,99.78
3218.00,99.78
3217.00,99.78
3216.00,99.78
3215.00,99.78
3214.00,99.78
3213.00,99.78
3212.00,99.78
3211.00,99.78
3210.00,99.78
3209.00,99.78
3208.00,99.78
3207.00,99.78
3206.00,99.78
3205.00,99.78
3204.00,99.78
3203.00,99.78
3202.00,99.78
3201.00,99.78
3200.00,99.77
3199.00,99.77
3198.00,99.76
3197.00,99.76
3196.00,99.76
3195.00,99.77
3194.00,99.78
3193.00,99.78
3192.00,99.79
3191.00,99.79
3190.00,99.79
3189.00,99.78
3188.00,99.78
3187.00,99.78
3186.00,99.78
3185.00,99.78
3184.00,99.77
3183.00,99.77
3182.00,99.77
3181.00,99.77
3180.00,99.77
3179.00,99.77
3178.00,99.76
3177.00,99.76
3176.00,99.76
3175.00,99.76
3174.00,99.76
3173.00,99.77
3172.00,99.77
3171.00,99.77
3170.00,99.77
3169.00,99.77
3168.00,99.77
3167.00,99.76
3166.00,99.76
3165.00,99.76
3164.00,99.76
3163.00,99.76
3162.00,99.76
3161.00,99.76
3160.00,99.76
3159.00,99.76
3158.00,99.76
3157.00,99.75
3156.00,99.75
3155.00,99.75
3154.00,99.75
3153.00,99.75
3152.00,99.75
3151.00,99.76
3150.00,99.76
3149.00,99.76
3148.00,99.75
3147.00,99.75
3146.00,99.75
3145.00,99.75
3144.00,99.75
3143.00,99.74
3142.00,99.74
3141.00,99.74
3140.00,99.74
3139.00,99.75
3138.00,99.74
3137.00,99.74
3136.00,99.74
3135.00,99.73
3134.00,99.73
3133.00,99.73
3132.00,99.73
3131.00,99.73
3130.00,99.72
3129.00,99.72
3128.00,99.72
3127.00,99.72
3126.00,99.71
3125.00,99.71
3124.00,99.71
3123.00,99.70
3122.00,99.70
3121.00,99.70
3120.00,99.69
3119.00,99.69
3118.00,99.69
3117.00,99.69
3116.00,99.68
3115.00,99.68
3114.00,99.68
3113.00,99.67
3112.00,99.67
3111.00,99.66
3110.00,99.66
3109.00,99.65
3108.00,99.65
3107.00,99.64
3106.00,99.64
3105.00,99.63
3104.00,99.62
3103.00,99.61
3102.00,99.60
3101.00,99.60
3100.00,99.59
3099.00,99.59
3098.00,99.58
3097.00,99.58
3096.00,99.57
3095.00,99.56
3094.00,99.55
3093.00,99.54
3092.00,99.53
3091.00,99.52
3090.00,99.51
3089.00,99.51
3088.00,99.50
3087.00,99.50
3086.00,99.50
3085.00,99.49
3084.00,99.48
3083.00,99.47
3082.00,99.46
3081.00,99.45
3080.00,99.44
3079.00,99.44
3078.00,99.43
3077.00,99.43
3076.00,99.42
3075.00,99.42
3074.00,99.41
3073.00,99.40
3072.00,99.40
3071.00,99.39
3070.00,99.39
3069.00,99.39
3068.00,99.38
3067.00,99.38
3066.00,99.37
3065.00,99.37
3064.00,99.36
3063.00,99.35
3062.00,99.34
3061.00,99.33
3060.00,99.33
3059.00,99.32
3058.00,99.31
3057.00,99.31
3056.00,99.30
3055.00,99.30
3054.00,99.30
3053.00,99.29
3052.00,99.27
3051.00,99.26
3050.00,99.25
3049.00,99.24
3048.00,99.23
3047.00,99.22
3046.00,99.21
3045.00,99.20
3044.00,99.19
3043.00,99.18
3042.00,99.17
3041.00,99.16
3040.00,99.15
3039.00,99.14
3038.00,99.13
3037.00,99.12
3036.00,99.11
3035.00,99.10
3034.00,99.09
3033.00,99.08
3032.00,99.07
3031.00,99.06
3030.00,99.05
3029.00,99.04
3028.00,99.03
3027.00,99.02
3026.00,99.01
3025.00,99.00
3024.00,98.99
3023.00,98.98
3022.00,98.97
3021.00,98.96
3020.00,98.95
3019.00,98.94
3018.00,98.92
3017.00,98.91
3016.00,98.89
3015.00,98.88
3014.00,98.86
3013.00,98.85
3012.00,98.83
3011.00,98.81
3010.00,98.80
3009.00,98.78
3008.00,98.77
3007.00,98.75
3006.00,98.73
3005.00,98.70
3004.00,98.68
3003.00,98.66
3002.00,98.64
3001.00,98.61
3000.00,98.59
2999.00,98.56
2998.00,98.53
2997.00,98.50
2996.00,98.47
2995.00,98.44
2994.00,98.40
2993.00,98.36
2992.00,98.32
2991.00,98.28
2990.00,98.23
2989.00,98.18
2988.00,98.12
2987.00,98.06
2986.00,97.99
2985.00,97.92
2984.00,97.84
2983.00,97.77
2982.00,97.68
2981.00,97.58
2980.00,97.48
2979.00,97.36
2978.00,97.23
2977.00,97.08
2976.00,96.93
2975.00,96.77
2974.00,96.59
2973.00,96.40
2972.00,96.19
2971.00,95.97
2970.00,95.74
2969.00,95.50
2968.00,95.25
2967.00,94.99
2966.00,94.72
2965.00,94.46
2964.00,94.20
2963.00,93.95
2962.00,93.71
2961.00,93.48
2960.00,93.26
2959.00,93.05
2958.00,92.85
2957.00,92.67
2956.00,92.50
2955.00,92.35
2954.00,92.19
2953.00,92.04
2952.00,91.86
2951.00,91.66
2950.00,91.41
2949.00,91.09
2948.00,90.70
2947.00,90.22
2946.00,89.64
2945.00,88.97
2944.00,88.19
2943.00,87.32
2942.00,86.36
2941.00,85.30
2940.00,84.15
2939.00,82.91
2938.00,81.58
2937.00,80.15
2936.00,78.64
2935.00,77.02
2934.00,75.30
2933.00,73.49
2932.00,71.56
2931.00,69.51
2930.00,67.34
2929.00,65.04
2928.00,62.61
2927.00,60.03
2926.00,57.31
2925.00,54.45
2924.00,51.48
2923.00,48.42
2922.00,45.34
2921.00,42.34
2920.00,39.54
2919.00,37.09
2918.00,35.19
2917.00,34.03
2916.00,33.75
2915.00,34.35
2914.00,35.77
2913.00,37.83
2912.00,40.31
2911.00,42.98
2910.00,45.66
2909.00,48.23
2908.00,50.62
2907.00,52.78
2906.00,54.71
2905.00,56.44
2904.00,57.99
2903.00,59.37
2902.00,60.63
2901.00,61.79
2900.00,62.87
2899.00,63.89
2898.00,64.88
2897.00,65.86
2896.00,66.82
2895.00,67.79
2894.00,68.78
2893.00,69.78
2892.00,70.80
2891.00,71.83
2890.00,72.87
2889.00,73.91
2888.00,74.95
2887.00,75.97
2886.00,76.96
2885.00,77.92
2884.00,78.84
2883.00,79.72
2882.00,80.57
2881.00,81.37
2880.00,82.14
2879.00,82.86
2878.00,83.50
2877.00,84.07
2876.00,84.54
2875.00,84.91
2874.00,85.18
2873.00,85.37
2872.00,85.49
2871.00,85.54
2870.00,85.52
2869.00,85.41
2868.00,85.20
2867.00,84.86
2866.00,84.34
2865.00,83.64
2864.00,82.71
2863.00,81.54
2862.00,80.08
2861.00,78.32
2860.00,76.21
2859.00,73.72
2858.00,70.81
2857.00,67.43
2856.00,63.60
2855.00,59.33
2854.00,54.77
2853.00,50.14
2852.00,45.82
2851.00,42.28
2850.00,40.01
2849.00,39.37
2848.00,40.44
2847.00,43.04
2846.00,46.78
2845.00,51.17
2844.00,55.81
2843.00,60.38
2842.00,64.66
2841.00,68.54
2840.00,71.97
2839.00,74.94
2838.00,77.49
2837.00,79.68
2836.00,81.55
2835.00,83.17
2834.00,84.56
2833.00,85.76
2832.00,86.82
2831.00,87.74
2830.00,88.55
2829.00,89.27
2828.00,89.91
2827.00,90.50
2826.00,91.02
2825.00,91.50
2824.00,91.93
2823.00,92.33
2822.00,92.69
2821.00,93.03
2820.00,93.34
2819.00,93.63
2818.00,93.89
2817.00,94.14
2816.00,94.37
2815.00,94.59
2814.00,94.79
2813.00,94.97
2812.00,95.15
2811.00,95.31
2810.00,95.47
2809.00,95.61
2808.00,95.75
2807.00,95.88
2806.00,96.01
2805.00,96.13
2804.00,96.25
2803.00,96.36
2802.00,96.46
2801.00,96.56
2800.00,96.66
2799.00,96.75
2798.00,96.84
2797.00,96.92
2796.00,97.00
2795.00,97.08
2794.00,97.15
2793.00,97.23
2792.00,97.30
2791.00,97.37
2790.00,97.44
2789.00,97.50
2788.00,97.56
2787.00,97.63
2786.00,97.68
2785.00,97.74
2784.00,97.80
2783.00,97.85
2782.00,97.90
2781.00,97.95
2780.00,98.00
2779.00,98.05
2778.00,98.09
2777.00,98.13
2776.00,98.17
2775.00,98.20
2774.00,98.23
2773.00,98.26
2772.00,98.29
2771.00,98.31
2770.00,98.34
2769.00,98.36
2768.00,98.38
2767.00,98.40
2766.00,98.43
2765.00,98.45
2764.00,98.47
2763.00,98.48
2762.00,98.50
2761.00,98.52
2760.00,98.53
2759.00,98.54
2758.00,98.56
2757.00,98.57
2756.00,98.58
2755.00,98.59
2754.00,98.60
2753.00,98.60
2752.00,98.61
2751.00,98.61
2750.00,98.61
2749.00,98.62
2748.00,98.62
2747.00,98.62
2746.00,98.62
2745.00,98.62
2744.00,98.62
2743.00,98.62
2742.00,98.62
2741.00,98.62
2740.00,98.62
2739.00,98.62
2738.00,98.63
2737.00,98.64
2736.00,98.64
2735.00,98.65
2734.00,98.65
2733.00,98.66
2732.00,98.67
2731.00,98.67
2730.00,98.68
2729.00,98.69
2728.00,98.70
2727.00,98.72
2726.00,98.73
2725.00,98.74
2724.00,98.75
2723.00,98.76
2722.00,98.77
2721.00,98.78
2720.00,98.79
2719.00,98.80
2718.00,98.81
2717.00,98.82
2716.00,98.83
2715.00,98.84
2714.00,98.85
2713.00,98.85
2712.00,98.86
2711.00,98.87
2710.00,98.88
2709.00,98.89
2708.00,98.89
2707.00,98.90
2706.00,98.90
2705.00,98.91
2704.00,98.91
2703.00,98.92
2702.00,98.93
2701.00,98.93
2700.00,98.93
2699.00,98.94
2698.00,98.94
2697.00,98.94
2696.00,98.94
2695.00,98.94
2694.00,98.93
2693.00,98.93
2692.00,98.92
2691.00,98.91
2690.00,98.91
2689.00,98.90
2688.00,98.90
2687.00,98.89
2686.00,98.89
2685.00,98.89
2684.00,98.88
2683.00,98.87
2682.00,98.86
2681.00,98.85
2680.00,98.84
2679.00,98.84
2678.00,98.83
2677.00,98.83
2676.00,98.82
2675.00,98.81
2674.00,98.80
2673.00,98.79
2672.00,98.79
2671.00,98.78
2670.00,98.78
2669.00,98.77
2668.00,98.77
2667.00,98.76
2666.00,98.76
2665.00,98.75
2664.00,98.75
2663.00,98.74
2662.00,98.73
2661.00,98.71
2660.00,98.71
2659.00,98.70
2658.00,98.69
2657.00,98.69
2656.00,98.69
2655.00,98.69
2654.00,98.68
2653.00,98.68
2652.00,98.67
2651.00,98.67
2650.00,98.67
2649.00,98.67
2648.00,98.67
2647.00,98.67
2646.00,98.67
2645.00,98.66
2644.00,98.66
2643.00,98.65
2642.00,98.65
2641.00,98.65
2640.00,98.64
2639.00,98.64
2638.00,98.64
2637.00,98.64
2636.00,98.64
2635.00,98.65
2634.00,98.65
2633.00,98.66
2632.00,98.67
2631.00,98.69
2630.00,98.70
2629.00,98.72
2628.00,98.73
2627.00,98.75
2626.00,98.77
2625.00,98.78
2624.00,98.80
2623.00,98.82
2622.00,98.83
2621.00,98.84
2620.00,98.86
2619.00,98.88
2618.00,98.89
2617.00,98.91
2616.00,98.92
2615.00,98.93
2614.00,98.94
2613.00,98.96
2612.00,98.97
2611.00,98.98
2610.00,98.99
2609.00,99.00
2608.00,99.02
2607.00,99.03
2606.00,99.04
2605.00,99.05
2604.00,99.06
2603.00,99.07
2602.00,99.08
2601.00,99.09
2600.00,99.09
2599.00,99.10
2598.00,99.11
2597.00,99.12
2596.00,99.13
2595.00,99.14
2594.00,99.15
2593.00,99.16
2592.00,99.17
2591.00,99.18
2590.00,99.20
2589.00,99.21
2588.00,99.22
2587.00,99.23
2586.00,99.23
2585.00,99.24
2584.00,99.25
2583.00,99.26
2582.00,99.27
2581.00,99.28
2580.00,99.28
2579.00,99.29
2578.00,99.29
2577.00,99.30
2576.00,99.30
2575.00,99.31
2574.00,99.32
2573.00,99.33
2572.00,99.33
2571.00,99.34
2570.00,99.34
2569.00,99.35
2568.00,99.36
2567.00,99.37
2566.00,99.37
2565.00,99.38
2564.00,99.38
2563.00,99.39
2562.00,99.40
2561.00,99.40
2560.00,99.40
2559.00,99.41
2558.00,99.41
2557.00,99.41
2556.00,99.41
2555.00,99.42
2554.00,99.42
2553.00,99.42
2552.00,99.43
2551.00,99.44
2550.00,99.45
2549.00,99.45
2548.00,99.46
2547.00,99.47
2546.00,99.48
2545.00,99.48
2544.00,99.49
2543.00,99.49
2542.00,99.50
2541.00,99.50
2540.00,99.51
2539.00,99.51
2538.00,99.51
2537.00,99.51
2536.00,99.51
2535.00,99.52
2534.00,99.52
2533.00,99.51
2532.00,99.51
2531.00,99.51
2530.00,99.51
2529.00,99.51
2528.00,99.51
2527.00,99.51
2526.00,99.52
2525.00,99.52
2524.00,99.53
2523.00,99.54
2522.00,99.55
2521.00,99.55
2520.00,99.56
2519.00,99.57
2518.00,99.57
2517.00,99.58
2516.00,99.58
2515.00,99.59
2514.00,99.59
2513.00,99.60
2512.00,99.61
2511.00,99.61
2510.00,99.62
2509.00,99.62
2508.00,99.62
2507.00,99.62
2506.00,99.62
2505.00,99.62
2504.00,99.62
2503.00,99.62
2502.00,99.63
2501.00,99.63
2500.00,99.64
2499.00,99.64
2498.00,99.64
2497.00,99.64
2496.00,99.64
2495.00,99.64
2494.00,99.64
2493.00,99.64
2492.00,99.64
2491.00,99.64
2490.00,99.64
2489.00,99.64
2488.00,99.65
2487.00,99.65
2486.00,99.64
2485.00,99.64
2484.00,99.64
2483.00,99.64
2482.00,99.64
2481.00,99.64
2480.00,99.64
2479.00,99.65
2478.00,99.65
2477.00,99.65
2476.00,99.65
2475.00,99.65
2474.00,99.65
2473.00,99.66
2472.00,99.66
2471.00,99.67
2470.00,99.67
2469.00,99.68
2468.00,99.68
2467.00,99.68
2466.00,99.69
2465.00,99.69
2464.00,99.69
2463.00,99.69
2462.00,99.69
2461.00,99.68
2460.00,99.68
2459.00,99.67
2458.00,99.67
2457.00,99.66
2456.00,99.66
2455.00,99.66
2454.00,99.66
2453.00,99.66
2452.00,99.66
2451.00,99.66
2450.00,99.66
2449.00,99.66
2448.00,99.67
2447.00,99.68
2446.00,99.68
2445.00,99.69
2444.00,99.69
2443.00,99.69
2442.00,99.69
2441.00,99.69
2440.00,99.69
2439.00,99.69
2438.00,99.69
2437.00,99.68
2436.00,99.69
2435.00,99.69
2434.00,99.69
2433.00,99.69
2432.00,99.69
2431.00,99.69
2430.00,99.69
2429.00,99.70
2428.00,99.69
2427.00,99.69
2426.00,99.69
2425.00,99.69
2424.00,99.69
2423.00,99.69
2422.00,99.69
2421.00,99.68
2420.00,99.68
2419.00,99.68
2418.00,99.69
2417.00,99.69
2416.00,99.69
2415.00,99.69
2414.00,99.69
2413.00,99.69
2412.00,99.69
2411.00,99.70
2410.00,99.70
2409.00,99.70
2408.00,99.71
2407.00,99.72
2406.00,99.73
2405.00,99.74
2404.00,99.75
2403.00,99.75
2402.00,99.75
2401.00,99.75
2400.00,99.75
2399.00,99.75
2398.00,99.74
2397.00,99.75
2396.00,99.75
2395.00,99.75
2394.00,99.76
2393.00,99.76
2392.00,99.76
2391.00,99.76
2390.00,99.76
2389.00,99.76
2388.00,99.76
2387.00,99.76
2386.00,99.76
2385.00,99.76
2384.00,99.76
2383.00,99.75
2382.00,99.75
2381.00,99.75
2380.00,99.75
2379.00,99.76
2378.00,99.77
2377.00,99.79
2376.00,99.81
2375.00,99.84
2374.00,99.86
2373.00,99.86
2372.00,99.86
2371.00,99.84
2370.00,99.83
2369.00,99.81
2368.00,99.80
2367.00,99.78
2366.00,99.76
2365.00,99.74
2364.00,99.71
2363.00,99.69
2362.00,99.67
2361.00,99.65
2360.00,99.64
2359.00,99.64
2358.00,99.64
2357.00,99.64
2356.00,99.64
2355.00,99.65
2354.00,99.64
2353.00,99.63
2352.00,99.62
2351.00,99.60
2350.00,99.59
2349.00,99.59
2348.00,99.59
2347.00,99.60
2346.00,99.60
2345.00,99.58
2344.00,99.55
2343.00,99.53
2342.00,99.51
2341.00,99.49
2340.00,99.49
2339.00,99.49
2338.00,99.48
2337.00,99.47
2336.00,99.46
2335.00,99.46
2334.00,99.45
2333.00,99.44
2332.00,99.45
2331.00,99.46
2330.00,99.46
2329.00,99.45
2328.00,99.42
2327.00,99.37
2326.00,99.30
2325.00,99.22
2324.00,99.18
2323.00,99.18
2322.00,99.21
2321.00,99.25
2320.00,99.28
2319.00,99.31
2318.00,99.33
2317.00,99.34
2316.00,99.35
2315.00,99.35
2314.00,99.35
2313.00,99.35
2312.00,99.36
2311.00,99.36
2310.00,99.37
2309.00,99.37
2308.00,99.38
2307.00,99.38
2306.00,99.39
2305.00,99.39
2304.00,99.39
2303.00,99.40
2302.00,99.40
2301.00,99.40
2300.00,99.40
2299.00,99.40
2298.00,99.41
2297.00,99.41
2296.00,99.40
2295.00,99.39
2294.00,99.39
2293.00,99.38
2292.00,99.37
2291.00,99.35
2290.00,99.34
2289.00,99.32
2288.00,99.30
2287.00,99.29
2286.00,99.28
2285.00,99.28
2284.00,99.29
2283.00,99.31
2282.00,99.33
2281.00,99.35
2280.00,99.37
2279.00,99.37
2278.00,99.38
2277.00,99.38
2276.00,99.39
2275.00,99.39
2274.00,99.40
2273.00,99.41
2272.00,99.43
2271.00,99.44
2270.00,99.44
2269.00,99.44
2268.00,99.45
2267.00,99.46
2266.00,99.48
2265.00,99.50
2264.00,99.50
2263.00,99.51
2262.00,99.51
2261.00,99.51
2260.00,99.50
2259.00,99.49
2258.00,99.48
2257.00,99.48
2256.00,99.49
2255.00,99.52
2254.00,99.54
2253.00,99.55
2252.00,99.55
2251.00,99.54
2250.00,99.53
2249.00,99.52
2248.00,99.51
2247.00,99.50
2246.00,99.49
2245.00,99.49
2244.00,99.49
2243.00,99.49
2242.00,99.50
2241.00,99.50
2240.00,99.52
2239.00,99.53
2238.00,99.53
2237.00,99.53
2236.00,99.51
2235.00,99.50
2234.00,99.50
2233.00,99.50
2232.00,99.51
2231.00,99.52
2230.00,99.52
2229.00,99.52
2228.00,99.52
2227.00,99.52
2226.00,99.52
2225.00,99.52
2224.00,99.53
2223.00,99.53
2222.00,99.52
2221.00,99.52
2220.00,99.51
2219.00,99.51
2218.00,99.52
2217.00,99.51
2216.00,99.51
2215.00,99.52
2214.00,99.52
2213.00,99.52
2212.00,99.53
2211.00,99.53
2210.00,99.54
2209.00,99.54
2208.00,99.53
2207.00,99.52
2206.00,99.51
2205.00,99.50
2204.00,99.50
2203.00,99.49
2202.00,99.48
2201.00,99.47
2200.00,99.47
2199.00,99.47
2198.00,99.46
2197.00,99.44
2196.00,99.43
2195.00,99.42
2194.00,99.41
2193.00,99.40
2192.00,99.40
2191.00,99.41
2190.00,99.42
2189.00,99.40
2188.00,99.38
2187.00,99.36
2186.00,99.34
2185.00,99.33
2184.00,99.34
2183.00,99.38
2182.00,99.43
2181.00,99.47
2180.00,99.49
2179.00,99.47
2178.00,99.45
2177.00,99.43
2176.00,99.44
2175.00,99.47
2174.00,99.50
2173.00,99.49
2172.00,99.45
2171.00,99.39
2170.00,99.32
2169.00,99.25
2168.00,99.20
2167.00,99.16
2166.00,99.14
2165.00,99.13
2164.00,99.10
2163.00,99.06
2162.00,99.03
2161.00,99.08
2160.00,99.24
2159.00,99.52
2158.00,99.82
2157.00,100.02
2156.00,100.10
2155.00,100.08
2154.00,100.02
2153.00,99.96
2152.00,99.91
2151.00,99.88
2150.00,99.85
2149.00,99.83
2148.00,99.81
2147.00,99.82
2146.00,99.84
2145.00,99.86
2144.00,99.87
2143.00,99.88
2142.00,99.87
2141.00,99.86
2140.00,99.85
2139.00,99.85
2138.00,99.86
2137.00,99.88
2136.00,99.92
2135.00,99.98
2134.00,100.03
2133.00,100.05
2132.00,100.05
2131.00,100.03
2130.00,99.99
2129.00,99.95
2128.00,99.92
2127.00,99.90
2126.00,99.87
2125.00,99.85
2124.00,99.82
2123.00,99.79
2122.00,99.78
2121.00,99.77
2120.00,99.75
2119.00,99.74
2118.00,99.71
2117.00,99.69
2116.00,99.66
2115.00,99.63
2114.00,99.61
2113.00,99.60
2112.00,99.60
2111.00,99.60
2110.00,99.61
2109.00,99.62
2108.00,99.62
2107.00,99.62
2106.00,99.62
2105.00,99.62
2104.00,99.62
2103.00,99.61
2102.00,99.61
2101.00,99.60
2100.00,99.60
2099.00,99.61
2098.00,99.62
2097.00,99.64
2096.00,99.67
2095.00,99.70
2094.00,99.72
2093.00,99.72
2092.00,99.70
2091.00,99.68
2090.00,99.66
2089.00,99.63
2088.00,99.61
2087.00,99.59
2086.00,99.58
2085.00,99.57
2084.00,99.56
2083.00,99.56
2082.00,99.55
2081.00,99.53
2080.00,99.51
2079.00,99.50
2078.00,99.49
2077.00,99.50
2076.00,99.50
2075.00,99.51
2074.00,99.51
2073.00,99.51
2072.00,99.52
2071.00,99.53
2070.00,99.53
2069.00,99.53
2068.00,99.53
2067.00,99.52
2066.00,99.51
2065.00,99.51
2064.00,99.51
2063.00,99.51
2062.00,99.52
2061.00,99.52
2060.00,99.52
2059.00,99.52
2058.00,99.50
2057.00,99.48
2056.00,99.47
2055.00,99.46
2054.00,99.44
2053.00,99.39
2052.00,99.30
2051.00,99.23
2050.00,99.20
2049.00,99.22
2048.00,99.27
2047.00,99.31
2046.00,99.33
2045.00,99.33
2044.00,99.32
2043.00,99.31
2042.00,99.29
2041.00,99.27
2040.00,99.25
2039.00,99.24
2038.00,99.23
2037.00,99.23
2036.00,99.24
2035.00,99.26
2034.00,99.30
2033.00,99.32
2032.00,99.34
2031.00,99.36
2030.00,99.36
2029.00,99.37
2028.00,99.37
2027.00,99.37
2026.00,99.36
2025.00,99.35
2024.00,99.34
2023.00,99.35
2022.00,99.35
2021.00,99.35
2020.00,99.34
2019.00,99.34
2018.00,99.34
2017.00,99.35
2016.00,99.35
2015.00,99.37
2014.00,99.38
2013.00,99.39
2012.00,99.39
2011.00,99.39
2010.00,99.40
2009.00,99.42
2008.00,99.47
2007.00,99.55
2006.00,99.62
2005.00,99.65
2004.00,99.65
2003.00,99.63
2002.00,99.61
2001.00,99.58
2000.00,99.57
1999.00,99.57
1998.00,99.56
1997.00,99.54
1996.00,99.51
1995.00,99.49
1994.00,99.48
1993.00,99.47
1992.00,99.47
1991.00,99.47
1990.00,99.47
1989.00,99.46
1988.00,99.43
1987.00,99.41
1986.00,99.40
1985.00,99.37
1984.00,99.34
1983.00,99.28
1982.00,99.21
1981.00,99.13
1980.00,99.09
1979.00,99.12
1978.00,99.23
1977.00,99.37
1976.00,99.49
1975.00,99.55
1974.00,99.58
1973.00,99.58
1972.00,99.58
1971.00,99.58
1970.00,99.59
1969.00,99.60
1968.00,99.62
1967.00,99.64
1966.00,99.65
1965.00,99.66
1964.00,99.67
1963.00,99.67
1962.00,99.68
1961.00,99.70
1960.00,99.72
1959.00,99.75
1958.00,99.77
1957.00,99.77
1956.00,99.75
1955.00,99.73
1954.00,99.72
1953.00,99.72
1952.00,99.71
1951.00,99.72
1950.00,99.72
1949.00,99.72
1948.00,99.71
1947.00,99.71
1946.00,99.71
1945.00,99.71
1944.00,99.71
1943.00,99.72
1942.00,99.73
1941.00,99.73
1940.00,99.73
1939.00,99.74
1938.00,99.74
1937.00,99.74
1936.00,99.74
1935.00,99.75
1934.00,99.74
1933.00,99.73
1932.00,99.73
1931.00,99.72
1930.00,99.72
1929.00,99.73
1928.00,99.73
1927.00,99.73
1926.00,99.74
1925.00,99.74
1924.00,99.74
1923.00,99.74
1922.00,99.73
1921.00,99.71
1920.00,99.69
1919.00,99.68
1918.00,99.68
1917.00,99.68
1916.00,99.69
1915.00,99.69
1914.00,99.68
1913.00,99.67
1912.00,99.67
1911.00,99.67
1910.00,99.67
1909.00,99.67
1908.00,99.66
1907.00,99.65
1906.00,99.65
1905.00,99.64
1904.00,99.64
1903.00,99.64
1902.00,99.63
1901.00,99.62
1900.00,99.62
1899.00,99.62
1898.00,99.62
1897.00,99.62
1896.00,99.63
1895.00,99.63
1894.00,99.64
1893.00,99.64
1892.00,99.64
1891.00,99.64
1890.00,99.66
1889.00,99.67
1888.00,99.68
1887.00,99.69
1886.00,99.70
1885.00,99.71
1884.00,99.72
1883.00,99.72
1882.00,99.73
1881.00,99.73
1880.00,99.73
1879.00,99.73
1878.00,99.74
1877.00,99.74
1876.00,99.74
1875.00,99.75
1874.00,99.75
1873.00,99.75
1872.00,99.74
1871.00,99.74
1870.00,99.75
1869.00,99.75
1868.00,99.74
1867.00,99.74
1866.00,99.74
1865.00,99.74
1864.00,99.75
1863.00,99.76
1862.00,99.77
1861.00,99.77
1860.00,99.77
1859.00,99.77
1858.00,99.76
1857.00,99.76
1856.00,99.76
1855.00,99.76
1854.00,99.77
1853.00,99.78
1852.00,99.78
1851.00,99.78
1850.00,99.78
1849.00,99.78
1848.00,99.77
1847.00,99.77
1846.00,99.77
1845.00,99.77
1844.00,99.77
1843.00,99.77
1842.00,99.77
1841.00,99.77
1840.00,99.77
1839.00,99.77
1838.00,99.77
1837.00,99.77
1836.00,99.77
1835.00,99.77
1834.00,99.77
1833.00,99.76
1832.00,99.76
1831.00,99.75
1830.00,99.75
1829.00,99.75
1828.00,99.75
1827.00,99.75
1826.00,99.75
1825.00,99.74
1824.00,99.74
1823.00,99.73
1822.00,99.73
1821.00,99.73
1820.00,99.74
1819.00,99.76
1818.00,99.78
1817.00,99.80
1816.00,99.80
1815.00,99.79
1814.00,99.78
1813.00,99.77
1812.00,99.76
1811.00,99.75
1810.00,99.75
1809.00,99.75
1808.00,99.75
1807.00,99.75
1806.00,99.75
1805.00,99.74
1804.00,99.73
1803.00,99.73
1802.00,99.73
1801.00,99.73
1800.00,99.73
1799.00,99.72
1798.00,99.72
1797.00,99.72
1796.00,99.71
1795.00,99.72
1794.00,99.72
1793.00,99.72
1792.00,99.72
1791.00,99.72
1790.00,99.72
1789.00,99.72
1788.00,99.73
1787.00,99.73
1786.00,99.73
1785.00,99.73
1784.00,99.73
1783.00,99.73
1782.00,99.73
1781.00,99.73
1780.00,99.73
1779.00,99.73
1778.00,99.73
1777.00,99.73
1776.00,99.73
1775.00,99.73
1774.00,99.73
1773.00,99.73
1772.00,99.73
1771.00,99.73
1770.00,99.73
1769.00,99.73
1768.00,99.72
1767.00,99.73
1766.00,99.73
1765.00,99.72
1764.00,99.72
1763.00,99.72
1762.00,99.72
1761.00,99.71
1760.00,99.71
1759.00,99.71
1758.00,99.71
1757.00,99.71
1756.00,99.70
1755.00,99.70
1754.00,99.70
1753.00,99.70
1752.00,99.70
1751.00,99.70
1750.00,99.70
1749.00,99.69
1748.00,99.69
1747.00,99.68
1746.00,99.68
1745.00,99.68
1744.00,99.68
1743.00,99.68
1742.00,99.68
1741.00,99.68
1740.00,99.67
1739.00,99.67
1738.00,99.67
1737.00,99.66
1736.00,99.65
1735.00,99.65
1734.00,99.65
1733.00,99.65
1732.00,99.65
1731.00,99.65
1730.00,99.64
1729.00,99.64
1728.00,99.64
1727.00,99.63
1726.00,99.63
1725.00,99.62
1724.00,99.62
1723.00,99.62
1722.00,99.62
1721.00,99.62
1720.00,99.62
1719.00,99.63
1718.00,99.63
1717.00,99.63
1716.00,99.63
1715.00,99.63
1714.00,99.64
1713.00,99.64
1712.00,99.64
1711.00,99.65
1710.00,99.65
1709.00,99.65
1708.00,99.64
1707.00,99.64
1706.00,99.64
1705.00,99.65
1704.00,99.64
1703.00,99.64
1702.00,99.64
1701.00,99.64
1700.00,99.64
1699.00,99.64
1698.00,99.64
1697.00,99.63
1696.00,99.64
1695.00,99.65
1694.00,99.65
1693.00,99.65
1692.00,99.65
1691.00,99.65
1690.00,99.64
1689.00,99.64
1688.00,99.63
1687.00,99.63
1686.00,99.64
1685.00,99.63
1684.00,99.63
1683.00,99.63
1682.00,99.63
1681.00,99.63
1680.00,99.63
1679.00,99.63
1678.00,99.63
1677.00,99.63
1676.00,99.62
1675.00,99.62
1674.00,99.62
1673.00,99.62
1672.00,99.61
1671.00,99.61
1670.00,99.61
1669.00,99.61
1668.00,99.60
1667.00,99.60
1666.00,99.60
1665.00,99.60
1664.00,99.59
1663.00,99.59
1662.00,99.59
1661.00,99.59
1660.00,99.59
1659.00,99.58
1658.00,99.58
1657.00,99.57
1656.00,99.56
1655.00,99.56
1654.00,99.55
1653.00,99.55
1652.00,99.54
1651.00,99.54
1650.00,99.53
1649.00,99.52
1648.00,99.51
1647.00,99.51
1646.00,99.51
1645.00,99.50
1644.00,99.50
1643.00,99.50
1642.00,99.50
1641.00,99.50
1640.00,99.50
1639.00,99.51
1638.00,99.51
1637.00,99.50
1636.00,99.50
1635.00,99.51
1634.00,99.52
1633.00,99.51
1632.00,99.51
1631.00,99.51
1630.00,99.52
1629.00,99.52
1628.00,99.52
1627.00,99.52
1626.00,99.51
1625.00,99.51
1624.00,99.50
1623.00,99.50
1622.00,99.51
1621.00,99.51
1620.00,99.50
1619.00,99.50
1618.00,99.51
1617.00,99.51
1616.00,99.51
1615.00,99.51
1614.00,99.51
1613.00,99.51
1612.00,99.51
1611.00,99.51
1610.00,99.51
1609.00,99.50
1608.00,99.50
1607.00,99.50
1606.00,99.50
1605.00,99.49
1604.00,99.48
1603.00,99.48
1602.00,99.48
1601.00,99.48
1600.00,99.48
1599.00,99.48
1598.00,99.48
1597.00,99.47
1596.00,99.47
1595.00,99.47
1594.00,99.47
1593.00,99.47
1592.00,99.46
1591.00,99.46
1590.00,99.46
1589.00,99.46
1588.00,99.46
1587.00,99.46
1586.00,99.46
1585.00,99.46
1584.00,99.45
1583.00,99.45
1582.00,99.46
1581.00,99.45
1580.00,99.45
1579.00,99.45
1578.00,99.45
1577.00,99.44
1576.00,99.44
1575.00,99.45
1574.00,99.46
1573.00,99.45
1572.00,99.45
1571.00,99.45
1570.00,99.46
1569.00,99.46
1568.00,99.45
1567.00,99.45
1566.00,99.45
1565.00,99.45
1564.00,99.44
1563.00,99.44
1562.00,99.45
1561.00,99.44
1560.00,99.42
1559.00,99.41
1558.00,99.41
1557.00,99.40
1556.00,99.40
1555.00,99.40
1554.00,99.40
1553.00,99.39
1552.00,99.38
1551.00,99.38
1550.00,99.37
1549.00,99.37
1548.00,99.36
1547.00,99.36
1546.00,99.36
1545.00,99.35
1544.00,99.34
1543.00,99.34
1542.00,99.35
1541.00,99.33
1540.00,99.32
1539.00,99.33
1538.00,99.34
1537.00,99.33
1536.00,99.32
1535.00,99.31
1534.00,99.31
1533.00,99.30
1532.00,99.29
1531.00,99.29
1530.00,99.29
1529.00,99.28
1528.00,99.27
1527.00,99.27
1526.00,99.27
1525.00,99.25
1524.00,99.23
1523.00,99.22
1522.00,99.22
1521.00,99.21
1520.00,99.19
1519.00,99.19
1518.00,99.19
1517.00,99.17
1516.00,99.15
1515.00,99.15
1514.00,99.15
1513.00,99.13
1512.00,99.10
1511.00,99.09
1510.00,99.08
1509.00,99.06
1508.00,99.02
1507.00,99.01
1506.00,99.01
1505.00,98.98
1504.00,98.95
1503.00,98.94
1502.00,98.92
1501.00,98.89
1500.00,98.85
1499.00,98.83
1498.00,98.81
1497.00,98.75
1496.00,98.68
1495.00,98.65
1494.00,98.63
1493.00,98.58
1492.00,98.51
1491.00,98.45
1490.00,98.38
1489.00,98.28
1488.00,98.16
1487.00,98.06
1486.00,97.95
1485.00,97.79
1484.00,97.60
1483.00,97.38
1482.00,97.08
1481.00,96.64
1480.00,96.08
1479.00,95.30
1478.00,93.97
1477.00,91.69
1476.00,88.36
1475.00,84.23
1474.00,79.71
1473.00,75.77
1472.00,73.58
1471.00,73.12
1470.00,73.40
1469.00,73.78
1468.00,74.16
1467.00,74.56
1466.00,75.03
1465.00,75.68
1464.00,76.66
1463.00,78.01
1462.00,79.66
1461.00,81.48
1460.00,83.28
1459.00,84.88
1458.00,86.25
1457.00,87.41
1456.00,88.36
1455.00,89.14
1454.00,89.89
1453.00,90.67
1452.00,91.46
1451.00,92.12
1450.00,92.65
1449.00,93.10
1448.00,93.48
1447.00,93.76
1446.00,93.97
1445.00,94.16
1444.00,94.33
1443.00,94.49
1442.00,94.64
1441.00,94.81
1440.00,94.98
1439.00,95.15
1438.00,95.32
1437.00,95.55
1436.00,95.80
1435.00,96.02
1434.00,96.22
1433.00,96.44
1432.00,96.69
1431.00,96.95
1430.00,97.20
1429.00,97.45
1428.00,97.68
1427.00,97.86
1426.00,98.01
1425.00,98.16
1424.00,98.31
1423.00,98.41
1422.00,98.48
1421.00,98.56
1420.00,98.64
1419.00,98.70
1418.00,98.74
1417.00,98.78
1416.00,98.82
1415.00,98.84
1414.00,98.86
1413.00,98.88
1412.00,98.91
1411.00,98.92
1410.00,98.93
1409.00,98.94
1408.00,98.96
1407.00,98.96
1406.00,98.97
1405.00,98.98
1404.00,99.00
1403.00,99.00
1402.00,99.00
1401.00,99.01
1400.00,99.01
1399.00,99.00
1398.00,98.99
1397.00,99.00
1396.00,99.00
1395.00,98.99
1394.00,98.98
1393.00,98.97
1392.00,98.96
1391.00,98.94
1390.00,98.91
1389.00,98.88
1388.00,98.83
1387.00,98.76
1386.00,98.66
1385.00,98.53
1384.00,98.35
1383.00,98.11
1382.00,97.79
1381.00,97.44
1380.00,97.10
1379.00,96.83
1378.00,96.67
1377.00,96.65
1376.00,96.74
1375.00,96.88
1374.00,97.01
1373.00,97.10
1372.00,97.14
1371.00,97.14
1370.00,97.13
1369.00,97.16
1368.00,97.21
1367.00,97.27
1366.00,97.35
1365.00,97.44
1364.00,97.54
1363.00,97.63
1362.00,97.71
1361.00,97.79
1360.00,97.85
1359.00,97.89
1358.00,97.91
1357.00,97.92
1356.00,97.92
1355.00,97.90
1354.00,97.87
1353.00,97.86
1352.00,97.87
1351.00,97.88
1350.00,97.91
1349.00,97.95
1348.00,98.00
1347.00,98.04
1346.00,98.09
1345.00,98.13
1344.00,98.18
1343.00,98.21
1342.00,98.25
1341.00,98.28
1340.00,98.33
1339.00,98.38
1338.00,98.43
1337.00,98.49
1336.00,98.56
1335.00,98.62
1334.00,98.67
1333.00,98.71
1332.00,98.74
1331.00,98.75
1330.00,98.76
1329.00,98.76
1328.00,98.76
1327.00,98.75
1326.00,98.74
1325.00,98.73
1324.00,98.71
1323.00,98.69
1322.00,98.67
1321.00,98.64
1320.00,98.62
1319.00,98.59
1318.00,98.55
1317.00,98.52
1316.00,98.49
1315.00,98.45
1314.00,98.41
1313.00,98.37
1312.00,98.34
1311.00,98.30
1310.00,98.27
1309.00,98.25
1308.00,98.24
1307.00,98.23
1306.00,98.21
1305.00,98.21
1304.00,98.21
1303.00,98.22
1302.00,98.22
1301.00,98.23
1300.00,98.25
1299.00,98.26
1298.00,98.28
1297.00,98.30
1296.00,98.33
1295.00,98.36
1294.00,98.40
1293.00,98.44
1292.00,98.47
1291.00,98.50
1290.00,98.52
1289.00,98.55
1288.00,98.57
1287.00,98.59
1286.00,98.61
1285.00,98.63
1284.00,98.65
1283.00,98.67
1282.00,98.68
1281.00,98.70
1280.00,98.72
1279.00,98.73
1278.00,98.74
1277.00,98.75
1276.00,98.76
1275.00,98.77
1274.00,98.77
1273.00,98.78
1272.00,98.80
1271.00,98.81
1270.00,98.82
1269.00,98.83
1268.00,98.84
1267.00,98.85
1266.00,98.87
1265.00,98.88
1264.00,98.90
1263.00,98.91
1262.00,98.92
1261.00,98.93
1260.00,98.94
1259.00,98.96
1258.00,98.97
1257.00,98.99
1256.00,99.01
1255.00,99.03
1254.00,99.05
1253.00,99.07
1252.00,99.11
1251.00,99.14
1250.00,99.16
1249.00,99.19
1248.00,99.22
1247.00,99.24
1246.00,99.26
1245.00,99.28
1244.00,99.31
1243.00,99.32
1242.00,99.33
1241.00,99.35
1240.00,99.37
1239.00,99.38
1238.00,99.38
1237.00,99.39
1236.00,99.39
1235.00,99.39
1234.00,99.39
1233.00,99.38
1232.00,99.38
1231.00,99.37
1230.00,99.37
1229.00,99.37
1228.00,99.37
1227.00,99.36
1226.00,99.35
1225.00,99.34
1224.00,99.33
1223.00,99.33
1222.00,99.34
1221.00,99.34
1220.00,99.33
1219.00,99.32
1218.00,99.31
1217.00,99.31
1216.00,99.31
1215.00,99.31
1214.00,99.30
1213.00,99.31
1212.00,99.31
1211.00,99.31
1210.00,99.30
1209.00,99.30
1208.00,99.30
1207.00,99.29
1206.00,99.29
1205.00,99.29
1204.00,99.29
1203.00,99.28
1202.00,99.28
1201.00,99.27
1200.00,99.27
1199.00,99.26
1198.00,99.26
1197.00,99.26
1196.00,99.26
1195.00,99.26
1194.00,99.25
1193.00,99.25
1192.00,99.25
1191.00,99.25
1190.00,99.25
1189.00,99.25
1188.00,99.25
1187.00,99.25
1186.00,99.24
1185.00,99.23
1184.00,99.23
1183.00,99.22
1182.00,99.21
1181.00,99.20
1180.00,99.19
1179.00,99.18
1178.00,99.17
1177.00,99.17
1176.00,99.17
1175.00,99.17
1174.00,99.17
1173.00,99.17
1172.00,99.17
1171.00,99.17
1170.00,99.16
1169.00,99.17
1168.00,99.18
1167.00,99.17
1166.00,99.17
1165.00,99.16
1164.00,99.16
1163.00,99.16
1162.00,99.15
1161.00,99.15
1160.00,99.14
1159.00,99.13
1158.00,99.11
1157.00,99.10
1156.00,99.09
1155.00,99.08
1154.00,99.08
1153.00,99.07
1152.00,99.07
1151.00,99.07
1150.00,99.06
1149.00,99.05
1148.00,99.04
1147.00,99.04
1146.00,99.04
1145.00,99.04
1144.00,99.04
1143.00,99.04
1142.00,99.04
1141.00,99.04
1140.00,99.04
1139.00,99.04
1138.00,99.04
1137.00,99.04
1136.00,99.04
1135.00,99.04
1134.00,99.03
1133.00,99.03
1132.00,99.04
1131.00,99.03
1130.00,99.03
1129.00,99.02
1128.00,99.03
1127.00,99.03
1126.00,99.03
1125.00,99.04
1124.00,99.05
1123.00,99.05
1122.00,99.04
1121.00,99.05
1120.00,99.05
1119.00,99.04
1118.00,99.04
1117.00,99.04
1116.00,99.04
1115.00,99.04
1114.00,99.03
1113.00,99.02
1112.00,99.02
1111.00,99.02
1110.00,99.02
1109.00,99.02
1108.00,99.01
1107.00,99.01
1106.00,99.01
1105.00,99.01
1104.00,99.01
1103.00,99.01
1102.00,99.00
1101.00,98.99
1100.00,98.98
1099.00,98.97
1098.00,98.95
1097.00,98.94
1096.00,98.92
1095.00,98.91
1094.00,98.89
1093.00,98.88
1092.00,98.88
1091.00,98.87
1090.00,98.86
1089.00,98.85
1088.00,98.83
1087.00,98.82
1086.00,98.81
1085.00,98.80
1084.00,98.80
1083.00,98.80
1082.00,98.79
1081.00,98.80
1080.00,98.80
1079.00,98.81
1078.00,98.82
1077.00,98.83
1076.00,98.85
1075.00,98.87
1074.00,98.88
1073.00,98.90
1072.00,98.92
1071.00,98.94
1070.00,98.94
1069.00,98.94
1068.00,98.94
1067.00,98.94
1066.00,98.93
1065.00,98.94
1064.00,98.94
1063.00,98.94
1062.00,98.95
1061.00,98.97
1060.00,98.98
1059.00,98.99
1058.00,98.99
1057.00,99.00
1056.00,99.01
1055.00,99.01
1054.00,99.01
1053.00,99.02
1052.00,99.03
1051.00,99.04
1050.00,99.06
1049.00,99.08
1048.00,99.09
1047.00,99.10
1046.00,99.10
1045.00,99.10
1044.00,99.11
1043.00,99.11
1042.00,99.11
1041.00,99.12
1040.00,99.13
1039.00,99.14
1038.00,99.14
1037.00,99.13
1036.00,99.14
1035.00,99.14
1034.00,99.15
1033.00,99.16
1032.00,99.17
1031.00,99.18
1030.00,99.18
1029.00,99.18
1028.00,99.19
1027.00,99.19
1026.00,99.19
1025.00,99.19
1024.00,99.20
1023.00,99.21
1022.00,99.21
1021.00,99.22
1020.00,99.22
1019.00,99.22
1018.00,99.22
1017.00,99.22
1016.00,99.22
1015.00,99.22
1014.00,99.22
1013.00,99.23
1012.00,99.24
1011.00,99.24
1010.00,99.24
1009.00,99.24
1008.00,99.24
1007.00,99.24
1006.00,99.23
1005.00,99.24
1004.00,99.24
1003.00,99.24
1002.00,99.24
1001.00,99.24
1000.00,99.24
999.00,99.23
998.00,99.22
997.00,99.22
996.00,99.21
995.00,99.21
994.00,99.21
993.00,99.22
992.00,99.23
991.00,99.24
990.00,99.24
989.00,99.24
988.00,99.25
987.00,99.25
986.00,99.26
985.00,99.28
984.00,99.29
983.00,99.29
982.00,99.29
981.00,99.29
980.00,99.28
979.00,99.27
978.00,99.27
977.00,99.27
976.00,99.26
975.00,99.26
974.00,99.26
973.00,99.26
972.00,99.25
971.00,99.24
970.00,99.24
969.00,99.24
968.00,99.24
967.00,99.24
966.00,99.24
965.00,99.24
964.00,99.24
963.00,99.24
962.00,99.25
961.00,99.25
960.00,99.26
959.00,99.27
958.00,99.28
957.00,99.28
956.00,99.28
955.00,99.28
954.00,99.27
953.00,99.26
952.00,99.25
951.00,99.25
950.00,99.25
949.00,99.26
948.00,99.27
947.00,99.27
946.00,99.27
945.00,99.26
944.00,99.26
943.00,99.26
942.00,99.26
941.00,99.26
940.00,99.25
939.00,99.25
938.00,99.24
937.00,99.23
936.00,99.23
935.00,99.23
934.00,99.23
933.00,99.23
932.00,99.24
931.00,99.25
930.00,99.24
929.00,99.24
928.00,99.23
927.00,99.23
926.00,99.23
925.00,99.22
924.00,99.21
923.00,99.20
922.00,99.20
921.00,99.20
920.00,99.21
919.00,99.22
918.00,99.21
917.00,99.19
916.00,99.18
915.00,99.16
914.00,99.14
913.00,99.10
912.00,99.07
911.00,99.04
910.00,99.01
909.00,99.01
908.00,99.02
907.00,99.04
906.00,99.07
905.00,99.09
904.00,99.11
903.00,99.12
902.00,99.11
901.00,99.11
900.00,99.11
899.00,99.10
898.00,99.09
897.00,99.08
896.00,99.07
895.00,99.05
894.00,99.03
893.00,99.01
892.00,98.98
891.00,98.95
890.00,98.92
889.00,98.90
888.00,98.89
887.00,98.89
886.00,98.91
885.00,98.93
884.00,98.97
883.00,99.01
882.00,99.06
881.00,99.10
880.00,99.13
879.00,99.15
878.00,99.16
877.00,99.18
876.00,99.19
875.00,99.19
874.00,99.18
873.00,99.18
872.00,99.18
871.00,99.19
870.00,99.19
869.00,99.21
868.00,99.21
867.00,99.21
866.00,99.21
865.00,99.20
864.00,99.21
863.00,99.21
862.00,99.21
861.00,99.20
860.00,99.19
859.00,99.18
858.00,99.18
857.00,99.18
856.00,99.19
855.00,99.19
854.00,99.18
853.00,99.17
852.00,99.17
851.00,99.16
850.00,99.16
849.00,99.15
848.00,99.15
847.00,99.15
846.00,99.15
845.00,99.16
844.00,99.16
843.00,99.16
842.00,99.15
841.00,99.14
840.00,99.14
839.00,99.14
838.00,99.14
837.00,99.14
836.00,99.14
835.00,99.13
834.00,99.12
833.00,99.12
832.00,99.14
831.00,99.15
830.00,99.15
829.00,99.15
828.00,99.14
827.00,99.13
826.00,99.12
825.00,99.12
824.00,99.14
823.00,99.14
822.00,99.14
821.00,99.12
820.00,99.10
819.00,99.09
818.00,99.08
817.00,99.08
816.00,99.09
815.00,99.09
814.00,99.09
813.00,99.08
812.00,99.08
811.00,99.06
810.00,99.04
809.00,99.02
808.00,99.01
807.00,99.01
806.00,99.01
805.00,99.00
804.00,98.99
803.00,98.98
802.00,98.96
801.00,98.95
800.00,98.94
799.00,98.92
798.00,98.91
797.00,98.89
796.00,98.88
795.00,98.86
794.00,98.84
793.00,98.83
792.00,98.82
791.00,98.82
790.00,98.81
789.00,98.80
788.00,98.78
787.00,98.76
786.00,98.74
785.00,98.73
784.00,98.71
783.00,98.69
782.00,98.66
781.00,98.65
780.00,98.64
779.00,98.62
778.00,98.60
777.00,98.58
776.00,98.56
775.00,98.54
774.00,98.52
773.00,98.50
772.00,98.48
771.00,98.47
770.00,98.45
769.00,98.43
768.00,98.42
767.00,98.40
766.00,98.39
765.00,98.38
764.00,98.37
763.00,98.36
762.00,98.34
761.00,98.33
760.00,98.32
759.00,98.31
758.00,98.29
757.00,98.26
756.00,98.23
755.00,98.19
754.00,98.14
753.00,98.09
752.00,98.04
751.00,97.99
750.00,97.93
749.00,97.86
748.00,97.78
747.00,97.71
746.00,97.63
745.00,97.54
744.00,97.44
743.00,97.33
742.00,97.19
741.00,97.03
740.00,96.85
739.00,96.63
738.00,96.36
737.00,95.99
736.00,95.46
735.00,94.65
734.00,93.37
733.00,91.61
732.00,89.65
731.00,87.95
730.00,86.91
729.00,86.52
728.00,86.41
727.00,86.12
726.00,85.38
725.00,84.12
724.00,82.36
723.00,80.06
722.00,77.23
721.00,74.11
720.00,71.24
719.00,69.29
718.00,68.76
717.00,69.84
716.00,72.41
715.00,76.05
714.00,80.05
713.00,83.73
712.00,86.74
711.00,89.02
710.00,90.73
709.00,92.04
708.00,93.07
707.00,93.90
706.00,94.59
705.00,95.16
704.00,95.65
703.00,96.05
702.00,96.39
701.00,96.69
700.00,96.95
699.00,97.16
698.00,97.34
697.00,97.50
696.00,97.63
695.00,97.75
694.00,97.86
693.00,97.96
692.00,98.05
691.00,98.13
690.00,98.21
689.00,98.29
688.00,98.36
687.00,98.42
686.00,98.47
685.00,98.51
684.00,98.55
683.00,98.59
682.00,98.61
681.00,98.65
680.00,98.69
679.00,98.72
678.00,98.75
677.00,98.78
676.00,98.81
675.00,98.85
674.00,98.88
673.00,98.89
672.00,98.90
671.00,98.91
670.00,98.89
669.00,98.92
668.00,98.94
667.00,98.94
666.00,98.93
665.00,98.94
664.00,98.96
663.00,98.97
662.00,98.97
661.00,98.97
660.00,98.98
659.00,99.00
658.00,99.01
657.00,99.04
656.00,99.07
655.00,99.10
654.00,99.11
653.00,99.14
652.00,99.16
651.00,99.15
650.00,99.13
