Created as New Dataset,PET Biaxial Film GF
cm-1,%T
4000.00,97.81
3999.00,97.81
3998.00,97.81
3997.00,97.81
3996.00,97.81
3995.00,97.82
3994.00,97.82
3993.00,97.82
3992.00,97.82
3991.00,97.82
3990.00,97.83
3989.00,97.83
3988.00,97.83
3987.00,97.83
3986.00,97.83
3985.00,97.83
3984.00,97.83
3983.00,97.83
3982.00,97.83
3981.00,97.83
3980.00,97.82
3979.00,97.82
3978.00,97.82
3977.00,97.82
3976.00,97.82
3975.00,97.82
3974.00,97.82
3973.00,97.82
3972.00,97.82
3971.00,97.82
3970.00,97.82
3969.00,97.82
3968.00,97.81
3967.00,97.81
3966.00,97.82
3965.00,97.82
3964.00,97.82
3963.00,97.82
3962.00,97.82
3961.00,97.82
3960.00,97.82
3959.00,97.83
3958.00,97.83
3957.00,97.83
3956.00,97.83
3955.00,97.83
3954.00,97.83
3953.00,97.83
3952.00,97.83
3951.00,97.83
3950.00,97.83
3949.00,97.83
3948.00,97.84
3947.00,97.84
3946.00,97.84
3945.00,97.84
3944.00,97.84
3943.00,97.84
3942.00,97.84
3941.00,97.84
3940.00,97.84
3939.00,97.83
3938.00,97.83
3937.00,97.83
3936.00,97.84
3935.00,97.84
3934.00,97.84
3933.00,97.84
3932.00,97.84
3931.00,97.83
3930.00,97.83
3929.00,97.84
3928.00,97.84
3927.00,97.84
3926.00,97.84
3925.00,97.84
3924.00,97.84
3923.00,97.84
3922.00,97.84
3921.00,97.84
3920.00,97.84
3919.00,97.84
3918.00,97.84
3917.00,97.84
3916.00,97.84
3915.00,97.84
3914.00,97.85
3913.00,97.85
3912.00,97.85
3911.00,97.85
3910.00,97.85
3909.00,97.84
3908.00,97.84
3907.00,97.84
3906.00,97.84
3905.00,97.84
3904.00,97.84
3903.00,97.85
3902.00,97.85
3901.00,97.85
3900.00,97.85
3899.00,97.85
3898.00,97.85
3897.00,97.85
3896.00,97.86
3895.00,97.86
3894.00,97.86
3893.00,97.86
3892.00,97.85
3891.00,97.85
3890.00,97.85
3889.00,97.86
3888.00,97.86
3887.00,97.86
3886.00,97.85
3885.00,97.85
3884.00,97.85
3883.00,97.85
3882.00,97.85
3881.00,97.85
3880.00,97.85
3879.00,97.86
3878.00,97.86
3877.00,97.87
3876.00,97.87
3875.00,97.87
3874.00,97.87
3873.00,97.88
3872.00,97.88
3871.00,97.87
3870.00,97.87
3869.00,97.87
3868.00,97.87
3867.00,97.87
3866.00,97.87
3865.00,97.87
3864.00,97.87
3863.00,97.87
3862.00,97.87
3861.00,97.87
3860.00,97.86
3859.00,97.86
3858.00,97.86
3857.00,97.87
3856.00,97.87
3855.00,97.87
3854.00,97.87
3853.00,97.87
3852.00,97.88
3851.00,97.88
3850.00,97.87
3849.00,97.87
3848.00,97.87
3847.00,97.87
3846.00,97.87
3845.00,97.87
3844.00,97.87
3843.00,97.87
3842.00,97.86
3841.00,97.86
3840.00,97.86
3839.00,97.86
3838.00,97.86
3837.00,97.86
3836.00,97.86
3835.00,97.87
3834.00,97.87
3833.00,97.86
3832.00,97.86
3831.00,97.86
3830.00,97.86
3829.00,97.86
3828.00,97.86
3827.00,97.86
3826.00,97.86
3825.00,97.87
3824.00,97.87
3823.00,97.86
3822.00,97.86
3821.00,97.86
3820.00,97.86
3819.00,97.86
3818.00,97.86
3817.00,97.85
3816.00,97.84
3815.00,97.84
3814.00,97.85
3813.00,97.84
3812.00,97.84
3811.00,97.84
3810.00,97.84
3809.00,97.84
3808.00,97.83
3807.00,97.83
3806.00,97.82
3805.00,97.82
3804.00,97.83
3803.00,97.82
3802.00,97.83
3801.00,97.83
3800.00,97.84
3799.00,97.84
3798.00,97.84
3797.00,97.84
3796.00,97.84
3795.00,97.84
3794.00,97.84
3793.00,97.84
3792.00,97.84
3791.00,97.84
3790.00,97.84
3789.00,97.84
3788.00,97.84
3787.00,97.84
3786.00,97.84
3785.00,97.84
3784.00,97.84
3783.00,97.84
3782.00,97.84
3781.00,97.84
3780.00,97.83
3779.00,97.83
3778.00,97.83
3777.00,97.83
3776.00,97.83
3775.00,97.83
3774.00,97.83
3773.00,97.83
3772.00,97.83
3771.00,97.82
3770.00,97.82
3769.00,97.81
3768.00,97.81
3767.00,97.81
3766.00,97.81
3765.00,97.80
3764.00,97.80
3763.00,97.80
3762.00,97.80
3761.00,97.80
3760.00,97.80
3759.00,97.80
3758.00,97.80
3757.00,97.79
3756.00,97.79
3755.00,97.80
3754.00,97.80
3753.00,97.81
3752.00,97.81
3751.00,97.81
3750.00,97.81
3749.00,97.81
3748.00,97.81
3747.00,97.82
3746.00,97.82
3745.00,97.82
3744.00,97.82
3743.00,97.82
3742.00,97.83
3741.00,97.82
3740.00,97.82
3739.00,97.82
3738.00,97.81
3737.00,97.81
3736.00,97.80
3735.00,97.80
3734.00,97.80
3733.00,97.80
3732.00,97.81
3731.00,97.81
3730.00,97.81
3729.00,97.81
3728.00,97.81
3727.00,97.81
3726.00,97.82
3725.00,97.83
3724.00,97.83
3723.00,97.83
3722.00,97.83
3721.00,97.83
3720.00,97.83
3719.00,97.84
3718.00,97.84
3717.00,97.84
3716.00,97.84
3715.00,97.84
3714.00,97.83
3713.00,97.83
3712.00,97.83
3711.00,97.82
3710.00,97.82
3709.00,97.82
3708.00,97.82
3707.00,97.82
3706.00,97.81
3705.00,97.81
3704.00,97.81
3703.00,97.80
3702.00,97.80
3701.00,97.80
3700.00,97.79
3699.00,97.79
3698.00,97.78
3697.00,97.78
3696.00,97.77
3695.00,97.76
3694.00,97.75
3693.00,97.73
3692.00,97.72
3691.00,97.70
3690.00,97.68
3689.00,97.66
3688.00,97.65
3687.00,97.64
3686.00,97.64
3685.00,97.64
3684.00,97.64
3683.00,97.65
3682.00,97.65
3681.00,97.65
3680.00,97.65
3679.00,97.64
3678.00,97.64
3677.00,97.64
3676.00,97.63
3675.00,97.62
3674.00,97.62
3673.00,97.62
3672.00,97.61
3671.00,97.60
3670.00,97.60
3669.00,97.59
3668.00,97.59
3667.00,97.58
3666.00,97.57
3665.00,97.56
3664.00,97.55
3663.00,97.54
3662.00,97.53
3661.00,97.52
3660.00,97.51
3659.00,97.50
3658.00,97.49
3657.00,97.48
3656.00,97.47
3655.00,97.46
3654.00,97.45
3653.00,97.44
3652.00,97.42
3651.00,97.41
3650.00,97.40
3649.00,97.39
3648.00,97.38
3647.00,97.37
3646.00,97.36
3645.00,97.36
3644.00,97.35
3643.00,97.35
3642.00,97.34
3641.00,97.33
3640.00,97.33
3639.00,97.32
3638.00,97.32
3637.00,97.32
3636.00,97.32
3635.00,97.32
3634.00,97.31
3633.00,97.31
3632.00,97.31
3631.00,97.30
3630.00,97.30
3629.00,97.30
3628.00,97.30
3627.00,97.31
3626.00,97.31
3625.00,97.31
3624.00,97.31
3623.00,97.31
3622.00,97.32
3621.00,97.32
3620.00,97.32
3619.00,97.32
3618.00,97.32
3617.00,97.33
3616.00,97.34
3615.00,97.35
3614.00,97.36
3613.00,97.36
3612.00,97.36
3611.00,97.37
3610.00,97.37
3609.00,97.38
3608.00,97.38
3607.00,97.38
3606.00,97.39
3605.00,97.40
3604.00,97.40
3603.00,97.41
3602.00,97.41
3601.00,97.41
3600.00,97.41
3599.00,97.41
3598.00,97.42
3597.00,97.42
3596.00,97.43
3595.00,97.43
3594.00,97.43
3593.00,97.43
3592.00,97.43
3591.00,97.43
3590.00,97.43
3589.00,97.43
3588.00,97.43
3587.00,97.43
3586.00,97.42
3585.00,97.42
3584.00,97.41
3583.00,97.40
3582.00,97.40
3581.00,97.39
3580.00,97.38
3579.00,97.38
3578.00,97.37
3577.00,97.36
3576.00,97.34
3575.00,97.33
3574.00,97.32
3573.00,97.30
3572.00,97.30
3571.00,97.29
3570.00,97.28
3569.00,97.27
3568.00,97.26
3567.00,97.25
3566.00,97.24
3565.00,97.23
3564.00,97.23
3563.00,97.22
3562.00,97.22
3561.00,97.21
3560.00,97.21
3559.00,97.20
3558.00,97.20
3557.00,97.19
3556.00,97.19
3555.00,97.18
3554.00,97.17
3553.00,97.17
3552.00,97.16
3551.00,97.16
3550.00,97.16
3549.00,97.16
3548.00,97.17
3547.00,97.18
3546.00,97.18
3545.00,97.18
3544.00,97.19
3543.00,97.19
3542.00,97.19
3541.00,97.19
3540.00,97.20
3539.00,97.21
3538.00,97.21
3537.00,97.22
3536.00,97.22
3535.00,97.23
3534.00,97.23
3533.00,97.24
3532.00,97.24
3531.00,97.25
3530.00,97.26
3529.00,97.27
3528.00,97.27
3527.00,97.28
3526.00,97.28
3525.00,97.29
3524.00,97.30
3523.00,97.31
3522.00,97.32
3521.00,97.33
3520.00,97.34
3519.00,97.35
3518.00,97.36
3517.00,97.37
3516.00,97.37
3515.00,97.37
3514.00,97.38
3513.00,97.38
3512.00,97.39
3511.00,97.39
3510.00,97.40
3509.00,97.40
3508.00,97.41
3507.00,97.41
3506.00,97.42
3505.00,97.43
3504.00,97.44
3503.00,97.44
3502.00,97.44
3501.00,97.44
3500.00,97.45
3499.00,97.45
3498.00,97.46
3497.00,97.46
3496.00,97.46
3495.00,97.46
3494.00,97.46
3493.00,97.46
3492.00,97.47
3491.00,97.47
3490.00,97.47
3489.00,97.47
3488.00,97.47
3487.00,97.47
3486.00,97.47
3485.00,97.47
3484.00,97.47
3483.00,97.47
3482.00,97.48
3481.00,97.48
3480.00,97.47
3479.00,97.46
3478.00,97.46
3477.00,97.45
3476.00,97.44
3475.00,97.44
3474.00,97.44
3473.00,97.45
3472.00,97.45
3471.00,97.46
3470.00,97.46
3469.00,97.45
3468.00,97.44
3467.00,97.42
3466.00,97.40
3465.00,97.37
3464.00,97.36
3463.00,97.35
3462.00,97.34
3461.00,97.33
3460.00,97.32
3459.00,97.30
3458.00,97.27
3457.00,97.25
3456.00,97.23
3455.00,97.21
3454.00,97.18
3453.00,97.16
3452.00,97.14
3451.00,97.11
3450.00,97.09
3449.00,97.07
3448.00,97.05
3447.00,97.02
3446.00,96.98
3445.00,96.94
3444.00,96.90
3443.00,96.86
3442.00,96.82
3441.00,96.79
3440.00,96.75
3439.00,96.70
3438.00,96.64
3437.00,96.57
3436.00,96.48
3435.00,96.38
3434.00,96.28
3433.00,96.19
3432.00,96.14
3431.00,96.12
3430.00,96.13
3429.00,96.17
3428.00,96.22
3427.00,96.28
3426.00,96.35
3425.00,96.42
3424.00,96.50
3423.00,96.58
3422.00,96.66
3421.00,96.72
3420.00,96.78
3419.00,96.83
3418.00,96.88
3417.00,96.93
3416.00,96.99
3415.00,97.04
3414.00,97.08
3413.00,97.12
3412.00,97.15
3411.00,97.18
3410.00,97.20
3409.00,97.23
3408.00,97.25
3407.00,97.27
3406.00,97.29
3405.00,97.32
3404.00,97.35
3403.00,97.38
3402.00,97.41
3401.00,97.42
3400.00,97.43
3399.00,97.43
3398.00,97.43
3397.00,97.44
3396.00,97.45
3395.00,97.46
3394.00,97.48
3393.00,97.49
3392.00,97.50
3391.00,97.50
3390.00,97.50
3389.00,97.49
3388.00,97.49
3387.00,97.49
3386.00,97.49
3385.00,97.50
3384.00,97.51
3383.00,97.52
3382.00,97.53
3381.00,97.53
3380.00,97.54
3379.00,97.54
3378.00,97.55
3377.00,97.55
3376.00,97.55
3375.00,97.55
3374.00,97.56
3373.00,97.56
3372.00,97.57
3371.00,97.59
3370.00,97.60
3369.00,97.61
3368.00,97.60
3367.00,97.59
3366.00,97.58
3365.00,97.57
3364.00,97.56
3363.00,97.56
3362.00,97.57
3361.00,97.57
3360.00,97.57
3359.00,97.56
3358.00,97.56
3357.00,97.56
3356.00,97.56
3355.00,97.56
3354.00,97.56
3353.00,97.57
3352.00,97.57
3351.00,97.56
3350.00,97.55
3349.00,97.53
3348.00,97.53
3347.00,97.52
3346.00,97.53
3345.00,97.53
3344.00,97.52
3343.00,97.52
3342.00,97.52
3341.00,97.52
3340.00,97.52
3339.00,97.52
3338.00,97.52
3337.00,97.51
3336.00,97.50
3335.00,97.50
3334.00,97.50
3333.00,97.50
3332.00,97.50
3331.00,97.51
3330.00,97.52
3329.00,97.53
3328.00,97.55
3327.00,97.56
3326.00,97.56
3325.00,97.56
3324.00,97.56
3323.00,97.56
3322.00,97.57
3321.00,97.57
3320.00,97.58
3319.00,97.58
3318.00,97.58
3317.00,97.58
3316.00,97.57
3315.00,97.57
3314.00,97.58
3313.00,97.58
3312.00,97.58
3311.00,97.58
3310.00,97.59
3309.00,97.59
3308.00,97.60
3307.00,97.59
3306.00,97.59
3305.00,97.58
3304.00,97.57
3303.00,97.57
3302.00,97.56
3301.00,97.56
3300.00,97.55
3299.00,97.55
3298.00,97.56
3297.00,97.56
3296.00,97.57
3295.00,97.58
3294.00,97.58
3293.00,97.58
3292.00,97.58
3291.00,97.58
3290.00,97.59
3289.00,97.59
3288.00,97.60
3287.00,97.61
3286.00,97.61
3285.00,97.62
3284.00,97.62
3283.00,97.61
3282.00,97.61
3281.00,97.61
3280.00,97.61
3279.00,97.61
3278.00,97.62
3277.00,97.62
3276.00,97.63
3275.00,97.63
3274.00,97.64
3273.00,97.64
3272.00,97.64
3271.00,97.64
3270.00,97.64
3269.00,97.63
3268.00,97.63
3267.00,97.63
3266.00,97.63
3265.00,97.63
3264.00,97.63
3263.00,97.63
3262.00,97.63
3261.00,97.63
3260.00,97.62
3259.00,97.62
3258.00,97.63
3257.00,97.63
3256.00,97.63
3255.00,97.63
3254.00,97.63
3253.00,97.63
3252.00,97.63
3251.00,97.63
3250.00,97.63
3249.00,97.63
3248.00,97.63
3247.00,97.63
3246.00,97.63
3245.00,97.62
3244.00,97.62
3243.00,97.62
3242.00,97.62
3241.00,97.61
3240.00,97.61
3239.00,97.61
3238.00,97.61
3237.00,97.61
3236.00,97.61
3235.00,97.62
3234.00,97.62
3233.00,97.61
3232.00,97.61
3231.00,97.61
3230.00,97.61
3229.00,97.61
3228.00,97.61
3227.00,97.61
3226.00,97.62
3225.00,97.62
3224.00,97.62
3223.00,97.63
3222.00,97.63
3221.00,97.63
3220.00,97.63
3219.00,97.64
3218.00,97.64
3217.00,97.64
3216.00,97.64
3215.00,97.65
3214.00,97.65
3213.00,97.65
3212.00,97.65
3211.00,97.65
3210.00,97.65
3209.00,97.66
3208.00,97.66
3207.00,97.66
3206.00,97.67
3205.00,97.66
3204.00,97.66
3203.00,97.66
3202.00,97.65
3201.00,97.65
3200.00,97.65
3199.00,97.65
3198.00,97.65
3197.00,97.64
3196.00,97.64
3195.00,97.64
3194.00,97.63
3193.00,97.63
3192.00,97.63
3191.00,97.63
3190.00,97.64
3189.00,97.64
3188.00,97.64
3187.00,97.64
3186.00,97.64
3185.00,97.64
3184.00,97.64
3183.00,97.64
3182.00,97.64
3181.00,97.64
3180.00,97.64
3179.00,97.64
3178.00,97.64
3177.00,97.64
3176.00,97.64
3175.00,97.64
3174.00,97.64
3173.00,97.64
3172.00,97.64
3171.00,97.64
3170.00,97.64
3169.00,97.64
3168.00,97.64
3167.00,97.64
3166.00,97.64
3165.00,97.64
3164.00,97.63
3163.00,97.63
3162.00,97.62
3161.00,97.62
3160.00,97.61
3159.00,97.60
3158.00,97.60
3157.00,97.60
3156.00,97.60
3155.00,97.60
3154.00,97.61
3153.00,97.61
3152.00,97.61
3151.00,97.60
3150.00,97.60
3149.00,97.59
3148.00,97.58
3147.00,97.58
3146.00,97.57
3145.00,97.56
3144.00,97.56
3143.00,97.55
3142.00,97.55
3141.00,97.54
3140.00,97.53
3139.00,97.52
3138.00,97.51
3137.00,97.50
3136.00,97.49
3135.00,97.48
3134.00,97.47
3133.00,97.46
3132.00,97.45
3131.00,97.44
3130.00,97.42
3129.00,97.41
3128.00,97.41
3127.00,97.41
3126.00,97.41
3125.00,97.41
3124.00,97.42
3123.00,97.42
3122.00,97.42
3121.00,97.42
3120.00,97.42
3119.00,97.42
3118.00,97.41
3117.00,97.39
3116.00,97.38
3115.00,97.36
3114.00,97.34
3113.00,97.32
3112.00,97.29
3111.00,97.27
3110.00,97.24
3109.00,97.21
3108.00,97.18
3107.00,97.16
3106.00,97.13
3105.00,97.11
3104.00,97.09
3103.00,97.09
3102.00,97.09
3101.00,97.10
3100.00,97.12
3099.00,97.15
3098.00,97.17
3097.00,97.19
3096.00,97.21
3095.00,97.22
3094.00,97.23
3093.00,97.23
3092.00,97.22
3091.00,97.21
3090.00,97.19
3089.00,97.17
3088.00,97.15
3087.00,97.12
3086.00,97.09
3085.00,97.06
3084.00,97.03
3083.00,97.01
3082.00,96.99
3081.00,96.98
3080.00,96.98
3079.00,96.98
3078.00,96.98
3077.00,96.98
3076.00,96.98
3075.00,96.97
3074.00,96.96
3073.00,96.95
3072.00,96.94
3071.00,96.93
3070.00,96.92
3069.00,96.92
3068.00,96.91
3067.00,96.91
3066.00,96.92
3065.00,96.92
3064.00,96.93
3063.00,96.92
3062.00,96.92
3061.00,96.90
3060.00,96.87
3059.00,96.83
3058.00,96.79
3057.00,96.75
3056.00,96.73
3055.00,96.73
3054.00,96.74
3053.00,96.77
3052.00,96.82
3051.00,96.88
3050.00,96.94
3049.00,97.01
3048.00,97.07
3047.00,97.13
3046.00,97.19
3045.00,97.23
3044.00,97.27
3043.00,97.30
3042.00,97.33
3041.00,97.34
3040.00,97.35
3039.00,97.36
3038.00,97.36
3037.00,97.37
3036.00,97.36
3035.00,97.36
3034.00,97.35
3033.00,97.34
3032.00,97.32
3031.00,97.30
3030.00,97.28
3029.00,97.25
3028.00,97.22
3027.00,97.19
3026.00,97.14
3025.00,97.09
3024.00,97.03
3023.00,96.96
3022.00,96.88
3021.00,96.78
3020.00,96.67
3019.00,96.56
3018.00,96.44
3017.00,96.34
3016.00,96.25
3015.00,96.20
3014.00,96.16
3013.00,96.15
3012.00,96.15
3011.00,96.15
3010.00,96.15
3009.00,96.16
3008.00,96.16
3007.00,96.16
3006.00,96.15
3005.00,96.14
3004.00,96.13
3003.00,96.12
3002.00,96.10
3001.00,96.09
3000.00,96.07
2999.00,96.05
2998.00,96.03
2997.00,96.01
2996.00,95.98
2995.00,95.95
2994.00,95.92
2993.00,95.87
2992.00,95.83
2991.00,95.77
2990.00,95.71
2989.00,95.64
2988.00,95.56
2987.00,95.47
2986.00,95.37
2985.00,95.27
2984.00,95.15
2983.00,95.02
2982.00,94.87
2981.00,94.71
2980.00,94.53
2979.00,94.33
2978.00,94.10
2977.00,93.86
2976.00,93.60
2975.00,93.33
2974.00,93.08
2973.00,92.85
2972.00,92.68
2971.00,92.57
2970.00,92.53
2969.00,92.56
2968.00,92.65
2967.00,92.76
2966.00,92.89
2965.00,93.02
2964.00,93.14
2963.00,93.25
2962.00,93.35
2961.00,93.45
2960.00,93.55
2959.00,93.65
2958.00,93.75
2957.00,93.85
2956.00,93.96
2955.00,94.08
2954.00,94.20
2953.00,94.33
2952.00,94.46
2951.00,94.60
2950.00,94.73
2949.00,94.87
2948.00,95.01
2947.00,95.13
2946.00,95.26
2945.00,95.37
2944.00,95.47
2943.00,95.57
2942.00,95.65
2941.00,95.72
2940.00,95.79
2939.00,95.84
2938.00,95.89
2937.00,95.92
2936.00,95.95
2935.00,95.97
2934.00,95.99
2933.00,95.99
2932.00,95.98
2931.00,95.97
2930.00,95.96
2929.00,95.93
2928.00,95.91
2927.00,95.88
2926.00,95.85
2925.00,95.81
2924.00,95.77
2923.00,95.73
2922.00,95.68
2921.00,95.63
2920.00,95.57
2919.00,95.51
2918.00,95.45
2917.00,95.39
2916.00,95.33
2915.00,95.26
2914.00,95.17
2913.00,95.07
2912.00,94.97
2911.00,94.86
2910.00,94.77
2909.00,94.70
2908.00,94.68
2907.00,94.71
2906.00,94.79
2905.00,94.91
2904.00,95.06
2903.00,95.20
2902.00,95.34
2901.00,95.47
2900.00,95.57
2899.00,95.65
2898.00,95.71
2897.00,95.77
2896.00,95.81
2895.00,95.84
2894.00,95.86
2893.00,95.87
2892.00,95.88
2891.00,95.89
2890.00,95.91
2889.00,95.92
2888.00,95.94
2887.00,95.95
2886.00,95.98
2885.00,96.00
2884.00,96.03
2883.00,96.06
2882.00,96.09
2881.00,96.12
2880.00,96.14
2879.00,96.17
2878.00,96.19
2877.00,96.21
2876.00,96.22
2875.00,96.24
2874.00,96.26
2873.00,96.27
2872.00,96.29
2871.00,96.30
2870.00,96.32
2869.00,96.33
2868.00,96.35
2867.00,96.36
2866.00,96.37
2865.00,96.38
2864.00,96.39
2863.00,96.40
2862.00,96.40
2861.00,96.40
2860.00,96.40
2859.00,96.40
2858.00,96.41
2857.00,96.41
2856.00,96.40
2855.00,96.40
2854.00,96.40
2853.00,96.40
2852.00,96.41
2851.00,96.43
2850.00,96.48
2849.00,96.55
2848.00,96.62
2847.00,96.71
2846.00,96.79
2845.00,96.87
2844.00,96.94
2843.00,97.00
2842.00,97.05
2841.00,97.09
2840.00,97.13
2839.00,97.16
2838.00,97.19
2837.00,97.22
2836.00,97.24
2835.00,97.26
2834.00,97.28
2833.00,97.30
2832.00,97.32
2831.00,97.33
2830.00,97.35
2829.00,97.37
2828.00,97.38
2827.00,97.39
2826.00,97.41
2825.00,97.42
2824.00,97.43
2823.00,97.43
2822.00,97.44
2821.00,97.44
2820.00,97.44
2819.00,97.44
2818.00,97.44
2817.00,97.43
2816.00,97.43
2815.00,97.43
2814.00,97.43
2813.00,97.43
2812.00,97.43
2811.00,97.44
2810.00,97.44
2809.00,97.44
2808.00,97.43
2807.00,97.43
2806.00,97.44
2805.00,97.44
2804.00,97.45
2803.00,97.46
2802.00,97.47
2801.00,97.48
2800.00,97.49
2799.00,97.50
2798.00,97.52
2797.00,97.53
2796.00,97.54
2795.00,97.55
2794.00,97.56
2793.00,97.58
2792.00,97.59
2791.00,97.60
2790.00,97.61
2789.00,97.62
2788.00,97.63
2787.00,97.64
2786.00,97.64
2785.00,97.65
2784.00,97.65
2783.00,97.66
2782.00,97.67
2781.00,97.68
2780.00,97.68
2779.00,97.69
2778.00,97.69
2777.00,97.70
2776.00,97.71
2775.00,97.72
2774.00,97.73
2773.00,97.73
2772.00,97.74
2771.00,97.74
2770.00,97.74
2769.00,97.75
2768.00,97.75
2767.00,97.75
2766.00,97.76
2765.00,97.76
2764.00,97.76
2763.00,97.76
2762.00,97.77
2761.00,97.76
2760.00,97.76
2759.00,97.76
2758.00,97.76
2757.00,97.76
2756.00,97.76
2755.00,97.76
2754.00,97.77
2753.00,97.77
2752.00,97.76
2751.00,97.76
2750.00,97.76
2749.00,97.76
2748.00,97.76
2747.00,97.76
2746.00,97.76
2745.00,97.76
2744.00,97.76
2743.00,97.77
2742.00,97.78
2741.00,97.78
2740.00,97.79
2739.00,97.80
2738.00,97.81
2737.00,97.82
2736.00,97.83
2735.00,97.83
2734.00,97.84
2733.00,97.85
2732.00,97.86
2731.00,97.87
2730.00,97.88
2729.00,97.88
2728.00,97.89
2727.00,97.90
2726.00,97.91
2725.00,97.91
2724.00,97.92
2723.00,97.92
2722.00,97.93
2721.00,97.93
2720.00,97.94
2719.00,97.94
2718.00,97.94
2717.00,97.94
2716.00,97.95
2715.00,97.95
2714.00,97.96
2713.00,97.96
2712.00,97.97
2711.00,97.97
2710.00,97.97
2709.00,97.98
2708.00,97.98
2707.00,97.98
2706.00,97.99
2705.00,97.99
2704.00,98.00
2703.00,98.00
2702.00,98.01
2701.00,98.02
2700.00,98.02
2699.00,98.03
2698.00,98.03
2697.00,98.03
2696.00,98.03
2695.00,98.03
2694.00,98.03
2693.00,98.03
2692.00,98.04
2691.00,98.04
2690.00,98.04
2689.00,98.04
2688.00,98.04
2687.00,98.05
2686.00,98.05
2685.00,98.05
2684.00,98.04
2683.00,98.04
2682.00,98.04
2681.00,98.05
2680.00,98.05
2679.00,98.05
2678.00,98.06
2677.00,98.06
2676.00,98.07
2675.00,98.07
2674.00,98.07
2673.00,98.07
2672.00,98.07
2671.00,98.07
2670.00,98.07
2669.00,98.08
2668.00,98.08
2667.00,98.08
2666.00,98.08
2665.00,98.08
2664.00,98.07
2663.00,98.06
2662.00,98.05
2661.00,98.04
2660.00,98.03
2659.00,98.03
2658.00,98.02
2657.00,98.02
2656.00,98.01
2655.00,98.01
2654.00,98.01
2653.00,98.01
2652.00,98.00
2651.00,98.00
2650.00,97.99
2649.00,97.99
2648.00,97.98
2647.00,97.98
2646.00,97.97
2645.00,97.96
2644.00,97.96
2643.00,97.95
2642.00,97.94
2641.00,97.94
2640.00,97.93
2639.00,97.92
2638.00,97.91
2637.00,97.90
2636.00,97.89
2635.00,97.89
2634.00,97.88
2633.00,97.87
2632.00,97.86
2631.00,97.86
2630.00,97.86
2629.00,97.86
2628.00,97.86
2627.00,97.87
2626.00,97.87
2625.00,97.87
2624.00,97.87
2623.00,97.87
2622.00,97.87
2621.00,97.88
2620.00,97.88
2619.00,97.88
2618.00,97.88
2617.00,97.88
2616.00,97.88
2615.00,97.87
2614.00,97.87
2613.00,97.87
2612.00,97.87
2611.00,97.87
2610.00,97.87
2609.00,97.87
2608.00,97.87
2607.00,97.87
2606.00,97.86
2605.00,97.86
2604.00,97.86
2603.00,97.86
2602.00,97.85
2601.00,97.85
2600.00,97.84
2599.00,97.83
2598.00,97.82
2597.00,97.81
2596.00,97.80
2595.00,97.79
2594.00,97.79
2593.00,97.78
2592.00,97.76
2591.00,97.76
2590.00,97.75
2589.00,97.75
2588.00,97.74
2587.00,97.74
2586.00,97.73
2585.00,97.73
2584.00,97.72
2583.00,97.72
2582.00,97.73
2581.00,97.73
2580.00,97.73
2579.00,97.74
2578.00,97.74
2577.00,97.74
2576.00,97.74
2575.00,97.74
2574.00,97.75
2573.00,97.75
2572.00,97.75
2571.00,97.75
2570.00,97.75
2569.00,97.75
2568.00,97.74
2567.00,97.74
2566.00,97.74
2565.00,97.74
2564.00,97.74
2563.00,97.74
2562.00,97.74
2561.00,97.74
2560.00,97.74
2559.00,97.74
2558.00,97.75
2557.00,97.75
2556.00,97.75
2555.00,97.75
2554.00,97.75
2553.00,97.75
2552.00,97.75
2551.00,97.75
2550.00,97.76
2549.00,97.76
2548.00,97.76
2547.00,97.76
2546.00,97.75
2545.00,97.75
2544.00,97.75
2543.00,97.75
2542.00,97.75
2541.00,97.75
2540.00,97.75
2539.00,97.75
2538.00,97.76
2537.00,97.76
2536.00,97.76
2535.00,97.76
2534.00,97.76
2533.00,97.76
2532.00,97.77
2531.00,97.77
2530.00,97.78
2529.00,97.78
2528.00,97.79
2527.00,97.80
2526.00,97.81
2525.00,97.82
2524.00,97.83
2523.00,97.84
2522.00,97.85
2521.00,97.86
2520.00,97.87
2519.00,97.88
2518.00,97.88
2517.00,97.89
2516.00,97.90
2515.00,97.90
2514.00,97.91
2513.00,97.91
2512.00,97.92
2511.00,97.93
2510.00,97.93
2509.00,97.93
2508.00,97.94
2507.00,97.94
2506.00,97.94
2505.00,97.95
2504.00,97.95
2503.00,97.96
2502.00,97.97
2501.00,97.97
2500.00,97.97
2499.00,97.97
2498.00,97.97
2497.00,97.98
2496.00,97.98
2495.00,97.99
2494.00,98.00
2493.00,98.01
2492.00,98.01
2491.00,98.02
2490.00,98.02
2489.00,98.03
2488.00,98.04
2487.00,98.06
2486.00,98.06
2485.00,98.07
2484.00,98.07
2483.00,98.08
2482.00,98.09
2481.00,98.10
2480.00,98.11
2479.00,98.12
2478.00,98.13
2477.00,98.14
2476.00,98.15
2475.00,98.15
2474.00,98.15
2473.00,98.15
2472.00,98.16
2471.00,98.17
2470.00,98.17
2469.00,98.18
2468.00,98.18
2467.00,98.18
2466.00,98.19
2465.00,98.19
2464.00,98.19
2463.00,98.19
2462.00,98.19
2461.00,98.19
2460.00,98.19
2459.00,98.19
2458.00,98.19
2457.00,98.19
2456.00,98.19
2455.00,98.19
2454.00,98.18
2453.00,98.18
2452.00,98.18
2451.00,98.18
2450.00,98.19
2449.00,98.19
2448.00,98.19
2447.00,98.18
2446.00,98.18
2445.00,98.18
2444.00,98.18
2443.00,98.19
2442.00,98.19
2441.00,98.20
2440.00,98.20
2439.00,98.19
2438.00,98.18
2437.00,98.18
2436.00,98.17
2435.00,98.16
2434.00,98.16
2433.00,98.16
2432.00,98.15
2431.00,98.14
2430.00,98.13
2429.00,98.13
2428.00,98.12
2427.00,98.12
2426.00,98.12
2425.00,98.12
2424.00,98.12
2423.00,98.11
2422.00,98.10
2421.00,98.10
2420.00,98.09
2419.00,98.08
2418.00,98.07
2417.00,98.06
2416.00,98.05
2415.00,98.04
2414.00,98.04
2413.00,98.03
2412.00,98.02
2411.00,98.01
2410.00,98.00
2409.00,98.00
2408.00,97.99
2407.00,97.99
2406.00,98.00
2405.00,98.00
2404.00,97.99
2403.00,97.99
2402.00,97.98
2401.00,97.97
2400.00,97.96
2399.00,97.96
2398.00,97.95
2397.00,97.95
2396.00,97.94
2395.00,97.94
2394.00,97.94
2393.00,97.94
2392.00,97.94
2391.00,97.95
2390.00,97.95
2389.00,97.96
2388.00,97.96
2387.00,97.97
2386.00,97.97
2385.00,97.98
2384.00,97.98
2383.00,98.00
2382.00,98.01
2381.00,98.03
2380.00,98.04
2379.00,98.06
2378.00,98.07
2377.00,98.09
2376.00,98.10
2375.00,98.11
2374.00,98.11
2373.00,98.12
2372.00,98.13
2371.00,98.13
2370.00,98.15
2369.00,98.17
2368.00,98.18
2367.00,98.18
2366.00,98.19
2365.00,98.19
2364.00,98.19
2363.00,98.20
2362.00,98.22
2361.00,98.23
2360.00,98.24
2359.00,98.24
2358.00,98.24
2357.00,98.25
2356.00,98.25
2355.00,98.26
2354.00,98.28
2353.00,98.29
2352.00,98.30
2351.00,98.31
2350.00,98.31
2349.00,98.31
2348.00,98.31
2347.00,98.32
2346.00,98.33
2345.00,98.34
2344.00,98.34
2343.00,98.33
2342.00,98.33
2341.00,98.33
2340.00,98.33
2339.00,98.34
2338.00,98.36
2337.00,98.37
2336.00,98.38
2335.00,98.39
2334.00,98.40
2333.00,98.41
2332.00,98.42
2331.00,98.42
2330.00,98.43
2329.00,98.43
2328.00,98.42
2327.00,98.39
2326.00,98.34
2325.00,98.29
2324.00,98.25
2323.00,98.24
2322.00,98.26
2321.00,98.28
2320.00,98.30
2319.00,98.32
2318.00,98.34
2317.00,98.35
2316.00,98.37
2315.00,98.38
2314.00,98.39
2313.00,98.39
2312.00,98.38
2311.00,98.37
2310.00,98.37
2309.00,98.36
2308.00,98.35
2307.00,98.34
2306.00,98.33
2305.00,98.32
2304.00,98.31
2303.00,98.29
2302.00,98.27
2301.00,98.25
2300.00,98.22
2299.00,98.20
2298.00,98.18
2297.00,98.16
2296.00,98.12
2295.00,98.09
2294.00,98.07
2293.00,98.05
2292.00,98.03
2291.00,98.01
2290.00,97.98
2289.00,97.96
2288.00,97.94
2287.00,97.92
2286.00,97.92
2285.00,97.92
2284.00,97.92
2283.00,97.93
2282.00,97.95
2281.00,97.97
2280.00,97.98
2279.00,97.99
2278.00,98.00
2277.00,98.01
2276.00,98.02
2275.00,98.02
2274.00,98.02
2273.00,98.02
2272.00,98.01
2271.00,98.01
2270.00,98.01
2269.00,98.01
2268.00,98.01
2267.00,98.01
2266.00,98.02
2265.00,98.03
2264.00,98.03
2263.00,98.03
2262.00,98.03
2261.00,98.03
2260.00,98.02
2259.00,98.01
2258.00,98.01
2257.00,98.01
2256.00,98.02
2255.00,98.04
2254.00,98.07
2253.00,98.09
2252.00,98.10
2251.00,98.10
2250.00,98.11
2249.00,98.11
2248.00,98.10
2247.00,98.11
2246.00,98.12
2245.00,98.14
2244.00,98.15
2243.00,98.17
2242.00,98.18
2241.00,98.20
2240.00,98.21
2239.00,98.21
2238.00,98.22
2237.00,98.23
2236.00,98.24
2235.00,98.24
2234.00,98.25
2233.00,98.25
2232.00,98.26
2231.00,98.27
2230.00,98.28
2229.00,98.29
2228.00,98.30
2227.00,98.31
2226.00,98.32
2225.00,98.32
2224.00,98.32
2223.00,98.32
2222.00,98.31
2221.00,98.31
2220.00,98.33
2219.00,98.35
2218.00,98.36
2217.00,98.37
2216.00,98.37
2215.00,98.37
2214.00,98.38
2213.00,98.39
2212.00,98.39
2211.00,98.40
2210.00,98.41
2209.00,98.43
2208.00,98.45
2207.00,98.46
2206.00,98.47
2205.00,98.48
2204.00,98.49
2203.00,98.49
2202.00,98.50
2201.00,98.51
2200.00,98.51
2199.00,98.52
2198.00,98.52
2197.00,98.53
2196.00,98.53
2195.00,98.51
2194.00,98.51
2193.00,98.50
2192.00,98.50
2191.00,98.51
2190.00,98.52
2189.00,98.53
2188.00,98.52
2187.00,98.52
2186.00,98.51
2185.00,98.50
2184.00,98.50
2183.00,98.52
2182.00,98.55
2181.00,98.58
2180.00,98.59
2179.00,98.57
2178.00,98.55
2177.00,98.53
2176.00,98.54
2175.00,98.57
2174.00,98.59
2173.00,98.59
2172.00,98.56
2171.00,98.51
2170.00,98.46
2169.00,98.42
2168.00,98.37
2167.00,98.34
2166.00,98.33
2165.00,98.30
2164.00,98.26
2163.00,98.21
2162.00,98.18
2161.00,98.21
2160.00,98.30
2159.00,98.46
2158.00,98.63
2157.00,98.75
2156.00,98.79
2155.00,98.77
2154.00,98.74
2153.00,98.69
2152.00,98.64
2151.00,98.60
2150.00,98.56
2149.00,98.54
2148.00,98.53
2147.00,98.53
2146.00,98.54
2145.00,98.54
2144.00,98.54
2143.00,98.53
2142.00,98.52
2141.00,98.51
2140.00,98.49
2139.00,98.47
2138.00,98.48
2137.00,98.49
2136.00,98.51
2135.00,98.54
2134.00,98.57
2133.00,98.59
2132.00,98.58
2131.00,98.55
2130.00,98.51
2129.00,98.47
2128.00,98.43
2127.00,98.39
2126.00,98.35
2125.00,98.33
2124.00,98.30
2123.00,98.28
2122.00,98.26
2121.00,98.24
2120.00,98.22
2119.00,98.20
2118.00,98.18
2117.00,98.16
2116.00,98.13
2115.00,98.11
2114.00,98.09
2113.00,98.08
2112.00,98.08
2111.00,98.08
2110.00,98.08
2109.00,98.09
2108.00,98.09
2107.00,98.09
2106.00,98.09
2105.00,98.10
2104.00,98.11
2103.00,98.12
2102.00,98.13
2101.00,98.13
2100.00,98.13
2099.00,98.14
2098.00,98.15
2097.00,98.16
2096.00,98.18
2095.00,98.21
2094.00,98.24
2093.00,98.26
2092.00,98.27
2091.00,98.27
2090.00,98.28
2089.00,98.28
2088.00,98.27
2087.00,98.27
2086.00,98.28
2085.00,98.28
2084.00,98.29
2083.00,98.30
2082.00,98.32
2081.00,98.34
2080.00,98.37
2079.00,98.40
2078.00,98.42
2077.00,98.44
2076.00,98.44
2075.00,98.45
2074.00,98.47
2073.00,98.48
2072.00,98.50
2071.00,98.52
2070.00,98.54
2069.00,98.57
2068.00,98.59
2067.00,98.62
2066.00,98.66
2065.00,98.68
2064.00,98.70
2063.00,98.72
2062.00,98.74
2061.00,98.75
2060.00,98.76
2059.00,98.77
2058.00,98.78
2057.00,98.79
2056.00,98.80
2055.00,98.82
2054.00,98.83
2053.00,98.82
2052.00,98.79
2051.00,98.75
2050.00,98.75
2049.00,98.78
2048.00,98.83
2047.00,98.88
2046.00,98.91
2045.00,98.93
2044.00,98.94
2043.00,98.95
2042.00,98.97
2041.00,98.99
2040.00,98.98
2039.00,98.96
2038.00,98.95
2037.00,98.96
2036.00,98.98
2035.00,99.00
2034.00,99.02
2033.00,99.04
2032.00,99.04
2031.00,99.03
2030.00,99.03
2029.00,99.04
2028.00,99.05
2027.00,99.05
2026.00,99.06
2025.00,99.05
2024.00,99.03
2023.00,99.01
2022.00,99.01
2021.00,99.01
2020.00,99.00
2019.00,99.00
2018.00,99.01
2017.00,99.01
2016.00,98.98
2015.00,98.95
2014.00,98.93
2013.00,98.91
2012.00,98.89
2011.00,98.86
2010.00,98.85
2009.00,98.87
2008.00,98.89
2007.00,98.92
2006.00,98.94
2005.00,98.94
2004.00,98.92
2003.00,98.89
2002.00,98.87
2001.00,98.84
2000.00,98.80
1999.00,98.77
1998.00,98.75
1997.00,98.74
1996.00,98.71
1995.00,98.70
1994.00,98.69
1993.00,98.70
1992.00,98.68
1991.00,98.64
1990.00,98.61
1989.00,98.57
1988.00,98.54
1987.00,98.50
1986.00,98.47
1985.00,98.44
1984.00,98.40
1983.00,98.35
1982.00,98.31
1981.00,98.25
1980.00,98.20
1979.00,98.17
1978.00,98.20
1977.00,98.24
1976.00,98.26
1975.00,98.27
1974.00,98.26
1973.00,98.22
1972.00,98.15
1971.00,98.06
1970.00,97.98
1969.00,97.90
1968.00,97.79
1967.00,97.66
1966.00,97.51
1965.00,97.37
1964.00,97.23
1963.00,97.12
1962.00,97.06
1961.00,97.06
1960.00,97.10
1959.00,97.17
1958.00,97.25
1957.00,97.33
1956.00,97.40
1955.00,97.46
1954.00,97.52
1953.00,97.59
1952.00,97.65
1951.00,97.71
1950.00,97.77
1949.00,97.85
1948.00,97.92
1947.00,97.98
1946.00,98.06
1945.00,98.14
1944.00,98.22
1943.00,98.30
1942.00,98.37
1941.00,98.42
1940.00,98.45
1939.00,98.47
1938.00,98.50
1937.00,98.55
1936.00,98.59
1935.00,98.64
1934.00,98.69
1933.00,98.73
1932.00,98.75
1931.00,98.77
1930.00,98.80
1929.00,98.83
1928.00,98.87
1927.00,98.90
1926.00,98.93
1925.00,98.98
1924.00,99.03
1923.00,99.06
1922.00,99.08
1921.00,99.08
1920.00,99.07
1919.00,99.06
1918.00,99.07
1917.00,99.09
1916.00,99.09
1915.00,99.09
1914.00,99.10
1913.00,99.12
1912.00,99.13
1911.00,99.16
1910.00,99.18
1909.00,99.20
1908.00,99.19
1907.00,99.19
1906.00,99.18
1905.00,99.19
1904.00,99.19
1903.00,99.19
1902.00,99.20
1901.00,99.21
1900.00,99.22
1899.00,99.23
1898.00,99.25
1897.00,99.26
1896.00,99.28
1895.00,99.28
1894.00,99.28
1893.00,99.29
1892.00,99.29
1891.00,99.30
1890.00,99.31
1889.00,99.31
1888.00,99.30
1887.00,99.30
1886.00,99.30
1885.00,99.31
1884.00,99.31
1883.00,99.30
1882.00,99.29
1881.00,99.29
1880.00,99.28
1879.00,99.28
1878.00,99.27
1877.00,99.26
1876.00,99.24
1875.00,99.23
1874.00,99.23
1873.00,99.24
1872.00,99.25
1871.00,99.27
1870.00,99.28
1869.00,99.29
1868.00,99.27
1867.00,99.24
1866.00,99.20
1865.00,99.16
1864.00,99.12
1863.00,99.10
1862.00,99.08
1861.00,99.07
1860.00,99.05
1859.00,99.01
1858.00,98.98
1857.00,98.95
1856.00,98.90
1855.00,98.86
1854.00,98.82
1853.00,98.77
1852.00,98.73
1851.00,98.70
1850.00,98.67
1849.00,98.66
1848.00,98.64
1847.00,98.60
1846.00,98.54
1845.00,98.47
1844.00,98.40
1843.00,98.34
1842.00,98.29
1841.00,98.23
1840.00,98.17
1839.00,98.10
1838.00,98.05
1837.00,98.01
1836.00,97.96
1835.00,97.90
1834.00,97.85
1833.00,97.81
1832.00,97.76
1831.00,97.70
1830.00,97.65
1829.00,97.62
1828.00,97.60
1827.00,97.58
1826.00,97.55
1825.00,97.53
1824.00,97.49
1823.00,97.45
1822.00,97.41
1821.00,97.39
1820.00,97.38
1819.00,97.38
1818.00,97.38
1817.00,97.38
1816.00,97.36
1815.00,97.33
1814.00,97.31
1813.00,97.31
1812.00,97.30
1811.00,97.28
1810.00,97.26
1809.00,97.25
1808.00,97.24
1807.00,97.22
1806.00,97.21
1805.00,97.22
1804.00,97.25
1803.00,97.28
1802.00,97.31
1801.00,97.32
1800.00,97.30
1799.00,97.27
1798.00,97.27
1797.00,97.29
1796.00,97.31
1795.00,97.30
1794.00,97.27
1793.00,97.26
1792.00,97.26
1791.00,97.25
1790.00,97.23
1789.00,97.20
1788.00,97.18
1787.00,97.15
1786.00,97.14
1785.00,97.13
1784.00,97.11
1783.00,97.08
1782.00,97.05
1781.00,97.03
1780.00,97.00
1779.00,96.96
1778.00,96.91
1777.00,96.89
1776.00,96.87
1775.00,96.83
1774.00,96.76
1773.00,96.68
1772.00,96.60
1771.00,96.52
1770.00,96.46
1769.00,96.41
1768.00,96.33
1767.00,96.21
1766.00,96.09
1765.00,95.99
1764.00,95.89
1763.00,95.75
1762.00,95.59
1761.00,95.44
1760.00,95.30
1759.00,95.12
1758.00,94.89
1757.00,94.62
1756.00,94.33
1755.00,94.02
1754.00,93.70
1753.00,93.36
1752.00,92.90
1751.00,92.24
1750.00,91.41
1749.00,90.45
1748.00,89.35
1747.00,88.09
1746.00,86.68
1745.00,85.09
1744.00,83.25
1743.00,81.23
1742.00,79.07
1741.00,76.69
1740.00,74.06
1739.00,71.47
1738.00,69.31
1737.00,67.49
1736.00,65.49
1735.00,62.69
1734.00,59.33
1733.00,56.47
1732.00,54.25
1731.00,52.13
1730.00,49.82
1729.00,47.46
1728.00,45.21
1727.00,43.06
1726.00,40.92
1725.00,38.71
1724.00,36.42
1723.00,34.12
1722.00,31.96
1721.00,29.99
1720.00,27.95
1719.00,25.39
1718.00,22.28
1717.00,19.50
1716.00,17.63
1715.00,16.48
1714.00,15.99
1713.00,16.30
1712.00,17.34
1711.00,18.86
1710.00,20.71
1709.00,22.87
1708.00,25.27
1707.00,27.93
1706.00,30.86
1705.00,33.80
1704.00,36.32
1703.00,38.43
1702.00,40.68
1701.00,43.75
1700.00,47.22
1699.00,49.91
1698.00,51.89
1697.00,53.86
1696.00,56.12
1695.00,58.25
1694.00,59.92
1693.00,61.30
1692.00,62.62
1691.00,63.96
1690.00,65.24
1689.00,66.33
1688.00,67.18
1687.00,67.81
1686.00,68.27
1685.00,68.58
1684.00,68.89
1683.00,69.36
1682.00,70.04
1681.00,70.88
1680.00,71.82
1679.00,72.73
1678.00,73.54
1677.00,74.30
1676.00,75.07
1675.00,75.83
1674.00,76.51
1673.00,77.12
1672.00,77.70
1671.00,78.31
1670.00,79.00
1669.00,79.74
1668.00,80.45
1667.00,81.10
1666.00,81.70
1665.00,82.29
1664.00,82.92
1663.00,83.56
1662.00,84.15
1661.00,84.66
1660.00,85.12
1659.00,85.54
1658.00,85.91
1657.00,86.26
1656.00,86.59
1655.00,86.91
1654.00,87.20
1653.00,87.49
1652.00,87.78
1651.00,88.02
1650.00,88.20
1649.00,88.37
1648.00,88.59
1647.00,88.81
1646.00,88.99
1645.00,89.16
1644.00,89.34
1643.00,89.51
1642.00,89.68
1641.00,89.84
1640.00,90.00
1639.00,90.16
1638.00,90.30
1637.00,90.43
1636.00,90.54
1635.00,90.64
1634.00,90.77
1633.00,90.92
1632.00,91.06
1631.00,91.19
1630.00,91.30
1629.00,91.41
1628.00,91.53
1627.00,91.65
1626.00,91.75
1625.00,91.83
1624.00,91.92
1623.00,92.00
1622.00,92.06
1621.00,92.11
1620.00,92.14
1619.00,92.12
1618.00,92.02
1617.00,91.86
1616.00,91.73
1615.00,91.68
1614.00,91.72
1613.00,91.83
1612.00,92.00
1611.00,92.23
1610.00,92.49
1609.00,92.75
1608.00,93.01
1607.00,93.24
1606.00,93.44
1605.00,93.62
1604.00,93.80
1603.00,93.97
1602.00,94.12
1601.00,94.25
1600.00,94.37
1599.00,94.49
1598.00,94.59
1597.00,94.67
1596.00,94.74
1595.00,94.78
1594.00,94.80
1593.00,94.80
1592.00,94.79
1591.00,94.76
1590.00,94.71
1589.00,94.63
1588.00,94.52
1587.00,94.35
1586.00,94.10
1585.00,93.75
1584.00,93.31
1583.00,92.77
1582.00,92.21
1581.00,91.70
1580.00,91.32
1579.00,91.12
1578.00,91.13
1577.00,91.40
1576.00,91.87
1575.00,92.38
1574.00,92.81
1573.00,93.16
1572.00,93.49
1571.00,93.83
1570.00,94.19
1569.00,94.52
1568.00,94.78
1567.00,94.96
1566.00,95.10
1565.00,95.23
1564.00,95.35
1563.00,95.47
1562.00,95.57
1561.00,95.63
1560.00,95.69
1559.00,95.80
1558.00,95.83
1557.00,95.87
1556.00,95.95
1555.00,96.02
1554.00,96.07
1553.00,96.11
1552.00,96.17
1551.00,96.23
1550.00,96.28
1549.00,96.29
1548.00,96.14
1547.00,96.17
1546.00,96.38
1545.00,96.47
1544.00,96.54
1543.00,96.55
1542.00,96.54
1541.00,96.54
1540.00,96.56
1539.00,96.56
1538.00,96.56
1537.00,96.56
1536.00,96.54
1535.00,96.50
1534.00,96.45
1533.00,96.39
1532.00,96.33
1531.00,96.27
1530.00,96.19
1529.00,96.11
1528.00,96.04
1527.00,95.98
1526.00,95.91
1525.00,95.86
1524.00,95.86
1523.00,95.94
1522.00,96.06
1521.00,96.20
1520.00,96.28
1519.00,96.30
1518.00,96.29
1517.00,96.26
1516.00,96.16
1515.00,95.97
1514.00,95.68
1513.00,95.24
1512.00,94.64
1511.00,93.86
1510.00,92.84
1509.00,91.35
1508.00,89.03
1507.00,86.26
1506.00,84.63
1505.00,84.73
1504.00,85.87
1503.00,87.44
1502.00,89.17
1501.00,90.87
1500.00,92.37
1499.00,93.64
1498.00,94.66
1497.00,95.40
1496.00,95.87
1495.00,96.16
1494.00,96.31
1493.00,96.38
1492.00,96.40
1491.00,96.43
1490.00,96.42
1489.00,96.27
1488.00,96.00
1487.00,95.71
1486.00,95.41
1485.00,95.09
1484.00,94.75
1483.00,94.39
1482.00,93.98
1481.00,93.49
1480.00,92.97
1479.00,92.42
1478.00,91.79
1477.00,90.98
1476.00,90.00
1475.00,88.86
1474.00,87.49
1473.00,86.03
1472.00,85.11
1471.00,85.13
1470.00,85.87
1469.00,86.94
1468.00,88.04
1467.00,88.97
1466.00,89.64
1465.00,90.02
1464.00,90.17
1463.00,90.17
1462.00,90.10
1461.00,90.01
1460.00,89.90
1459.00,89.79
1458.00,89.63
1457.00,89.41
1456.00,89.23
1455.00,89.13
1454.00,89.09
1453.00,89.11
1452.00,89.19
1451.00,89.32
1450.00,89.47
1449.00,89.64
1448.00,89.82
1447.00,89.98
1446.00,90.10
1445.00,90.20
1444.00,90.30
1443.00,90.42
1442.00,90.55
1441.00,90.70
1440.00,90.88
1439.00,91.10
1438.00,91.38
1437.00,91.76
1436.00,92.16
1435.00,92.50
1434.00,92.80
1433.00,93.08
1432.00,93.35
1431.00,93.60
1430.00,93.81
1429.00,93.95
1428.00,94.00
1427.00,93.99
1426.00,93.92
1425.00,93.76
1424.00,93.47
1423.00,93.09
1422.00,92.61
1421.00,91.94
1420.00,90.83
1419.00,89.13
1418.00,86.97
1417.00,84.48
1416.00,81.62
1415.00,78.39
1414.00,74.91
1413.00,71.41
1412.00,68.25
1411.00,65.90
1410.00,64.63
1409.00,64.44
1408.00,65.29
1407.00,67.09
1406.00,69.64
1405.00,72.53
1404.00,75.29
1403.00,77.62
1402.00,79.51
1401.00,81.14
1400.00,82.64
1399.00,83.97
1398.00,85.02
1397.00,85.76
1396.00,86.31
1395.00,86.70
1394.00,86.94
1393.00,87.01
1392.00,86.95
1391.00,86.82
1390.00,86.64
1389.00,86.42
1388.00,86.21
1387.00,86.05
1386.00,86.00
1385.00,86.07
1384.00,86.25
1383.00,86.50
1382.00,86.77
1381.00,87.00
1380.00,87.17
1379.00,87.26
1378.00,87.27
1377.00,87.22
1376.00,87.11
1375.00,86.95
1374.00,86.76
1373.00,86.55
1372.00,86.38
1371.00,86.32
1370.00,86.39
1369.00,86.60
1368.00,86.94
1367.00,87.38
1366.00,87.90
1365.00,88.47
1364.00,89.07
1363.00,89.62
1362.00,90.03
1361.00,90.26
1360.00,90.34
1359.00,90.33
1358.00,90.27
1357.00,90.12
1356.00,89.86
1355.00,89.48
1354.00,88.95
1353.00,88.22
1352.00,87.26
1351.00,85.99
1350.00,84.31
1349.00,82.12
1348.00,79.33
1347.00,75.95
1346.00,72.06
1345.00,67.90
1344.00,63.89
1343.00,60.52
1342.00,58.17
1341.00,57.15
1340.00,57.64
1339.00,59.60
1338.00,62.64
1337.00,66.31
1336.00,70.22
1335.00,74.08
1334.00,77.62
1333.00,80.67
1332.00,83.16
1331.00,85.07
1330.00,86.43
1329.00,87.35
1328.00,87.93
1327.00,88.26
1326.00,88.39
1325.00,88.38
1324.00,88.29
1323.00,88.13
1322.00,87.92
1321.00,87.68
1320.00,87.42
1319.00,87.12
1318.00,86.78
1317.00,86.41
1316.00,86.00
1315.00,85.56
1314.00,85.08
1313.00,84.55
1312.00,83.98
1311.00,83.36
1310.00,82.71
1309.00,82.04
1308.00,81.34
1307.00,80.62
1306.00,79.88
1305.00,79.10
1304.00,78.26
1303.00,77.35
1302.00,76.35
1301.00,75.24
1300.00,74.06
1299.00,72.81
1298.00,71.54
1297.00,70.23
1296.00,68.91
1295.00,67.61
1294.00,66.34
1293.00,65.07
1292.00,63.81
1291.00,62.56
1290.00,61.34
1289.00,60.09
1288.00,58.81
1287.00,57.51
1286.00,56.20
1285.00,54.85
1284.00,53.47
1283.00,52.08
1282.00,50.70
1281.00,49.30
1280.00,47.90
1279.00,46.52
1278.00,45.18
1277.00,43.86
1276.00,42.55
1275.00,41.29
1274.00,40.09
1273.00,38.89
1272.00,37.67
1271.00,36.47
1270.00,35.29
1269.00,34.09
1268.00,32.89
1267.00,31.71
1266.00,30.58
1265.00,29.46
1264.00,28.37
1263.00,27.37
1262.00,26.46
1261.00,25.60
1260.00,24.80
1259.00,24.09
1258.00,23.46
1257.00,22.82
1256.00,22.14
1255.00,21.45
1254.00,20.72
1253.00,19.92
1252.00,19.04
1251.00,18.15
1250.00,17.26
1249.00,16.36
1248.00,15.44
1247.00,14.59
1246.00,13.84
1245.00,13.14
1244.00,12.51
1243.00,12.05
1242.00,11.77
1241.00,11.63
1240.00,11.66
1239.00,11.93
1238.00,12.45
1237.00,13.13
1236.00,13.97
1235.00,15.00
1234.00,16.20
1233.00,17.46
1232.00,18.75
1231.00,20.12
1230.00,21.52
1229.00,22.89
1228.00,24.21
1227.00,25.54
1226.00,26.88
1225.00,28.21
1224.00,29.59
1223.00,31.10
1222.00,32.77
1221.00,34.55
1220.00,36.41
1219.00,38.37
1218.00,40.34
1217.00,42.26
1216.00,44.06
1215.00,45.78
1214.00,47.41
1213.00,48.92
1212.00,50.34
1211.00,51.71
1210.00,53.04
1209.00,54.33
1208.00,55.60
1207.00,56.89
1206.00,58.20
1205.00,59.50
1204.00,60.78
1203.00,62.06
1202.00,63.33
1201.00,64.59
1200.00,65.82
1199.00,67.04
1198.00,68.23
1197.00,69.37
1196.00,70.46
1195.00,71.50
1194.00,72.48
1193.00,73.40
1192.00,74.24
1191.00,75.01
1190.00,75.71
1189.00,76.33
1188.00,76.88
1187.00,77.35
1186.00,77.74
1185.00,78.05
1184.00,78.28
1183.00,78.43
1182.00,78.51
1181.00,78.52
1180.00,78.48
1179.00,78.43
1178.00,78.39
1177.00,78.39
1176.00,78.47
1175.00,78.66
1174.00,78.98
1173.00,79.44
1172.00,80.04
1171.00,80.76
1170.00,81.54
1169.00,82.32
1168.00,83.03
1167.00,83.61
1166.00,84.05
1165.00,84.32
1164.00,84.46
1163.00,84.49
1162.00,84.43
1161.00,84.29
1160.00,84.09
1159.00,83.84
1158.00,83.53
1157.00,83.15
1156.00,82.71
1155.00,82.21
1154.00,81.64
1153.00,81.00
1152.00,80.29
1151.00,79.52
1150.00,78.68
1149.00,77.76
1148.00,76.76
1147.00,75.66
1146.00,74.45
1145.00,73.11
1144.00,71.63
1143.00,69.99
1142.00,68.18
1141.00,66.17
1140.00,63.95
1139.00,61.54
1138.00,58.93
1137.00,56.14
1136.00,53.21
1135.00,50.24
1134.00,47.30
1133.00,44.45
1132.00,41.74
1131.00,39.26
1130.00,37.03
1129.00,35.05
1128.00,33.30
1127.00,31.82
1126.00,30.60
1125.00,29.57
1124.00,28.71
1123.00,28.05
1122.00,27.59
1121.00,27.29
1120.00,27.17
1119.00,27.27
1118.00,27.55
1117.00,27.90
1116.00,28.19
1115.00,28.34
1114.00,28.27
1113.00,27.98
1112.00,27.57
1111.00,27.15
1110.00,26.73
1109.00,26.23
1108.00,25.59
1107.00,24.85
1106.00,24.05
1105.00,23.18
1104.00,22.28
1103.00,21.45
1102.00,20.71
1101.00,20.06
1100.00,19.51
1099.00,19.13
1098.00,18.95
1097.00,18.93
1096.00,19.06
1095.00,19.40
1094.00,19.91
1093.00,20.55
1092.00,21.28
1091.00,22.12
1090.00,23.06
1089.00,24.02
1088.00,24.99
1087.00,26.02
1086.00,27.11
1085.00,28.24
1084.00,29.42
1083.00,30.70
1082.00,32.09
1081.00,33.56
1080.00,35.11
1079.00,36.75
1078.00,38.46
1077.00,40.17
1076.00,41.84
1075.00,43.49
1074.00,45.09
1073.00,46.61
1072.00,48.05
1071.00,49.43
1070.00,50.77
1069.00,52.02
1068.00,53.20
1067.00,54.33
1066.00,55.41
1065.00,56.42
1064.00,57.36
1063.00,58.26
1062.00,59.09
1061.00,59.83
1060.00,60.48
1059.00,61.06
1058.00,61.55
1057.00,61.94
1056.00,62.23
1055.00,62.44
1054.00,62.56
1053.00,62.58
1052.00,62.51
1051.00,62.39
1050.00,62.23
1049.00,62.04
1048.00,61.84
1047.00,61.69
1046.00,61.60
1045.00,61.58
1044.00,61.63
1043.00,61.79
1042.00,62.06
1041.00,62.41
1040.00,62.84
1039.00,63.36
1038.00,63.93
1037.00,64.54
1036.00,65.17
1035.00,65.81
1034.00,66.45
1033.00,67.03
1032.00,67.52
1031.00,67.84
1030.00,67.80
1029.00,67.05
1028.00,65.18
1027.00,61.91
1026.00,57.39
1025.00,52.31
1024.00,47.61
1023.00,43.99
1022.00,41.45
1021.00,39.56
1020.00,37.98
1019.00,36.75
1018.00,36.21
1017.00,36.71
1016.00,38.42
1015.00,41.23
1014.00,44.73
1013.00,48.40
1012.00,51.84
1011.00,54.87
1010.00,57.45
1009.00,59.62
1008.00,61.44
1007.00,63.01
1006.00,64.35
1005.00,65.48
1004.00,66.44
1003.00,67.28
1002.00,68.02
1001.00,68.68
1000.00,69.26
999.00,69.78
998.00,70.27
997.00,70.69
996.00,71.05
995.00,71.34
994.00,71.51
993.00,71.52
992.00,71.37
991.00,71.12
990.00,70.90
989.00,70.83
988.00,70.97
987.00,71.30
986.00,71.66
985.00,71.94
984.00,72.06
983.00,72.02
982.00,71.81
981.00,71.43
980.00,70.87
979.00,70.14
978.00,69.24
977.00,68.15
976.00,66.89
975.00,65.52
974.00,64.17
973.00,62.97
972.00,62.08
971.00,61.63
970.00,61.67
969.00,62.14
968.00,62.91
967.00,63.89
966.00,64.95
965.00,66.00
964.00,67.01
963.00,67.97
962.00,68.87
961.00,69.70
960.00,70.46
959.00,71.15
958.00,71.78
957.00,72.34
956.00,72.85
955.00,73.32
954.00,73.75
953.00,74.14
952.00,74.49
951.00,74.82
950.00,75.13
949.00,75.41
948.00,75.67
947.00,75.92
946.00,76.16
945.00,76.39
944.00,76.60
943.00,76.81
942.00,77.02
941.00,77.23
940.00,77.43
939.00,77.62
938.00,77.81
937.00,77.98
936.00,78.14
935.00,78.30
934.00,78.46
933.00,78.62
932.00,78.77
931.00,78.92
930.00,79.08
929.00,79.23
928.00,79.38
927.00,79.53
926.00,79.67
925.00,79.80
924.00,79.92
923.00,80.03
922.00,80.14
921.00,80.23
920.00,80.30
919.00,80.36
918.00,80.40
917.00,80.42
916.00,80.40
915.00,80.36
914.00,80.29
913.00,80.17
912.00,80.01
911.00,79.81
910.00,79.56
909.00,79.27
908.00,78.93
907.00,78.57
906.00,78.17
905.00,77.76
904.00,77.34
903.00,76.94
902.00,76.59
901.00,76.29
900.00,76.05
899.00,75.89
898.00,75.81
897.00,75.80
896.00,75.84
895.00,75.93
894.00,76.05
893.00,76.16
892.00,76.25
891.00,76.31
890.00,76.31
889.00,76.23
888.00,76.05
887.00,75.77
886.00,75.37
885.00,74.81
884.00,74.11
883.00,73.25
882.00,72.22
881.00,70.99
880.00,69.55
879.00,67.88
878.00,65.92
877.00,63.45
876.00,60.22
875.00,56.11
874.00,51.53
873.00,47.53
872.00,45.50
871.00,46.26
870.00,49.46
869.00,53.87
868.00,58.24
867.00,61.89
866.00,64.67
865.00,66.66
864.00,68.03
863.00,68.94
862.00,69.52
861.00,69.79
860.00,69.82
859.00,69.67
858.00,69.39
857.00,68.98
856.00,68.45
855.00,67.86
854.00,67.19
853.00,66.44
852.00,65.59
851.00,64.72
850.00,63.91
849.00,63.26
848.00,62.88
847.00,62.84
846.00,63.16
845.00,63.73
844.00,64.47
843.00,65.30
842.00,66.18
841.00,67.04
840.00,67.84
839.00,68.61
838.00,69.35
837.00,70.06
836.00,70.74
835.00,71.39
834.00,72.03
833.00,72.64
832.00,73.19
831.00,73.72
830.00,74.22
829.00,74.68
828.00,75.09
827.00,75.47
826.00,75.83
825.00,76.15
824.00,76.42
823.00,76.66
822.00,76.88
821.00,77.06
820.00,77.22
819.00,77.36
818.00,77.49
817.00,77.58
816.00,77.63
815.00,77.68
814.00,77.74
813.00,77.78
812.00,77.81
811.00,77.83
810.00,77.84
809.00,77.83
808.00,77.78
807.00,77.73
806.00,77.67
805.00,77.59
804.00,77.47
803.00,77.35
802.00,77.25
801.00,77.13
800.00,76.96
799.00,76.65
798.00,76.15
797.00,75.40
796.00,74.48
795.00,73.57
794.00,72.90
793.00,72.63
792.00,72.80
791.00,73.33
790.00,74.07
789.00,74.85
788.00,75.60
787.00,76.32
786.00,77.03
785.00,77.68
784.00,78.26
783.00,78.77
782.00,79.22
781.00,79.62
780.00,79.96
779.00,80.28
778.00,80.57
777.00,80.83
776.00,81.06
775.00,81.31
774.00,81.56
773.00,81.81
772.00,82.05
771.00,82.30
770.00,82.57
769.00,82.85
768.00,83.12
767.00,83.40
766.00,83.66
765.00,83.91
764.00,84.13
763.00,84.34
762.00,84.54
761.00,84.72
760.00,84.89
759.00,85.07
758.00,85.26
757.00,85.44
756.00,85.60
755.00,85.75
754.00,85.91
753.00,86.05
752.00,86.19
751.00,86.32
750.00,86.42
749.00,86.47
748.00,86.45
747.00,86.35
746.00,86.14
745.00,85.73
744.00,85.05
743.00,84.01
742.00,82.47
741.00,80.30
740.00,77.42
739.00,73.85
738.00,69.66
737.00,64.94
736.00,59.83
735.00,54.53
734.00,49.23
733.00,44.06
732.00,39.10
731.00,34.45
730.00,30.11
729.00,26.01
728.00,22.16
727.00,18.68
726.00,15.78
725.00,13.63
724.00,12.41
723.00,12.21
722.00,12.98
721.00,14.47
720.00,16.39
719.00,18.46
718.00,20.47
717.00,22.29
716.00,23.92
715.00,25.45
714.00,26.94
713.00,28.44
712.00,29.97
711.00,31.63
710.00,33.41
709.00,35.24
708.00,37.07
707.00,38.90
706.00,40.72
705.00,42.47
704.00,44.14
703.00,45.79
702.00,47.49
701.00,49.28
700.00,51.16
699.00,53.08
698.00,54.97
697.00,56.70
696.00,58.24
695.00,59.60
694.00,60.80
693.00,61.87
692.00,62.81
691.00,63.68
690.00,64.48
689.00,65.18
688.00,65.78
687.00,66.30
686.00,66.75
685.00,67.10
684.00,67.38
683.00,67.59
682.00,67.78
681.00,67.97
680.00,68.21
679.00,68.56
678.00,69.04
677.00,69.58
676.00,70.14
675.00,70.67
674.00,71.16
673.00,71.59
672.00,71.95
671.00,72.28
670.00,72.61
669.00,73.02
668.00,73.47
667.00,73.84
666.00,74.12
665.00,74.35
664.00,74.58
663.00,74.81
662.00,75.04
661.00,75.27
660.00,75.47
659.00,75.65
658.00,75.82
657.00,75.99
656.00,76.17
655.00,76.37
654.00,76.56
653.00,76.71
652.00,76.83
651.00,76.94
650.00,77.07
