Created as New Dataset,PET amorphous
cm-1,%T
4000.00,97.10
3999.00,97.10
3998.00,97.10
3997.00,97.10
3996.00,97.10
3995.00,97.10
3994.00,97.10
3993.00,97.10
3992.00,97.10
3991.00,97.11
3990.00,97.11
3989.00,97.11
3988.00,97.11
3987.00,97.11
3986.00,97.11
3985.00,97.10
3984.00,97.10
3983.00,97.10
3982.00,97.09
3981.00,97.10
3980.00,97.10
3979.00,97.10
3978.00,97.11
3977.00,97.11
3976.00,97.11
3975.00,97.11
3974.00,97.10
3973.00,97.10
3972.00,97.10
3971.00,97.10
3970.00,97.10
3969.00,97.10
3968.00,97.10
3967.00,97.10
3966.00,97.10
3965.00,97.10
3964.00,97.11
3963.00,97.11
3962.00,97.11
3961.00,97.11
3960.00,97.10
3959.00,97.10
3958.00,97.10
3957.00,97.11
3956.00,97.11
3955.00,97.11
3954.00,97.10
3953.00,97.10
3952.00,97.10
3951.00,97.10
3950.00,97.10
3949.00,97.10
3948.00,97.10
3947.00,97.10
3946.00,97.10
3945.00,97.10
3944.00,97.09
3943.00,97.09
3942.00,97.10
3941.00,97.10
3940.00,97.10
3939.00,97.10
3938.00,97.10
3937.00,97.10
3936.00,97.10
3935.00,97.10
3934.00,97.10
3933.00,97.10
3932.00,97.10
3931.00,97.10
3930.00,97.10
3929.00,97.10
3928.00,97.10
3927.00,97.10
3926.00,97.09
3925.00,97.09
3924.00,97.09
3923.00,97.09
3922.00,97.09
3921.00,97.09
3920.00,97.09
3919.00,97.09
3918.00,97.09
3917.00,97.09
3916.00,97.09
3915.00,97.09
3914.00,97.09
3913.00,97.09
3912.00,97.09
3911.00,97.09
3910.00,97.09
3909.00,97.09
3908.00,97.09
3907.00,97.09
3906.00,97.09
3905.00,97.08
3904.00,97.08
3903.00,97.08
3902.00,97.08
3901.00,97.08
3900.00,97.08
3899.00,97.08
3898.00,97.09
3897.00,97.09
3896.00,97.09
3895.00,97.10
3894.00,97.10
3893.00,97.10
3892.00,97.09
3891.00,97.09
3890.00,97.09
3889.00,97.09
3888.00,97.09
3887.00,97.09
3886.00,97.09
3885.00,97.09
3884.00,97.09
3883.00,97.09
3882.00,97.08
3881.00,97.08
3880.00,97.08
3879.00,97.08
3878.00,97.08
3877.00,97.08
3876.00,97.08
3875.00,97.08
3874.00,97.09
3873.00,97.09
3872.00,97.09
3871.00,97.08
3870.00,97.08
3869.00,97.08
3868.00,97.08
3867.00,97.08
3866.00,97.08
3865.00,97.08
3864.00,97.08
3863.00,97.08
3862.00,97.08
3861.00,97.08
3860.00,97.08
3859.00,97.08
3858.00,97.08
3857.00,97.08
3856.00,97.08
3855.00,97.08
3854.00,97.08
3853.00,97.08
3852.00,97.08
3851.00,97.08
3850.00,97.08
3849.00,97.08
3848.00,97.08
3847.00,97.08
3846.00,97.08
3845.00,97.07
3844.00,97.07
3843.00,97.07
3842.00,97.07
3841.00,97.06
3840.00,97.06
3839.00,97.06
3838.00,97.06
3837.00,97.06
3836.00,97.06
3835.00,97.06
3834.00,97.05
3833.00,97.05
3832.00,97.04
3831.00,97.04
3830.00,97.04
3829.00,97.04
3828.00,97.04
3827.00,97.04
3826.00,97.04
3825.00,97.05
3824.00,97.05
3823.00,97.05
3822.00,97.05
3821.00,97.04
3820.00,97.04
3819.00,97.04
3818.00,97.04
3817.00,97.03
3816.00,97.03
3815.00,97.03
3814.00,97.03
3813.00,97.03
3812.00,97.03
3811.00,97.02
3810.00,97.02
3809.00,97.02
3808.00,97.02
3807.00,97.02
3806.00,97.03
3805.00,97.03
3804.00,97.03
3803.00,97.02
3802.00,97.02
3801.00,97.02
3800.00,97.02
3799.00,97.03
3798.00,97.03
3797.00,97.02
3796.00,97.02
3795.00,97.02
3794.00,97.02
3793.00,97.02
3792.00,97.02
3791.00,97.02
3790.00,97.02
3789.00,97.02
3788.00,97.02
3787.00,97.01
3786.00,97.01
3785.00,97.01
3784.00,97.01
3783.00,97.01
3782.00,97.01
3781.00,97.00
3780.00,97.00
3779.00,97.00
3778.00,97.00
3777.00,97.00
3776.00,97.00
3775.00,97.00
3774.00,96.99
3773.00,96.99
3772.00,96.99
3771.00,96.99
3770.00,96.98
3769.00,96.98
3768.00,96.98
3767.00,96.97
3766.00,96.97
3765.00,96.97
3764.00,96.96
3763.00,96.96
3762.00,96.96
3761.00,96.96
3760.00,96.96
3759.00,96.96
3758.00,96.95
3757.00,96.95
3756.00,96.96
3755.00,96.96
3754.00,96.96
3753.00,96.97
3752.00,96.97
3751.00,96.98
3750.00,96.98
3749.00,96.98
3748.00,96.98
3747.00,96.98
3746.00,96.97
3745.00,96.97
3744.00,96.96
3743.00,96.97
3742.00,96.98
3741.00,96.98
3740.00,96.98
3739.00,96.98
3738.00,96.98
3737.00,96.97
3736.00,96.97
3735.00,96.97
3734.00,96.97
3733.00,96.96
3732.00,96.97
3731.00,96.97
3730.00,96.98
3729.00,96.98
3728.00,96.98
3727.00,96.97
3726.00,96.98
3725.00,96.98
3724.00,96.98
3723.00,96.97
3722.00,96.97
3721.00,96.97
3720.00,96.98
3719.00,96.98
3718.00,96.98
3717.00,96.97
3716.00,96.97
3715.00,96.96
3714.00,96.96
3713.00,96.96
3712.00,96.97
3711.00,96.97
3710.00,96.97
3709.00,96.97
3708.00,96.96
3707.00,96.96
3706.00,96.96
3705.00,96.96
3704.00,96.96
3703.00,96.96
3702.00,96.96
3701.00,96.96
3700.00,96.96
3699.00,96.95
3698.00,96.94
3697.00,96.93
3696.00,96.92
3695.00,96.92
3694.00,96.92
3693.00,96.92
3692.00,96.91
3691.00,96.91
3690.00,96.90
3689.00,96.90
3688.00,96.89
3687.00,96.89
3686.00,96.88
3685.00,96.88
3684.00,96.87
3683.00,96.87
3682.00,96.86
3681.00,96.86
3680.00,96.86
3679.00,96.86
3678.00,96.86
3677.00,96.86
3676.00,96.86
3675.00,96.85
3674.00,96.85
3673.00,96.85
3672.00,96.84
3671.00,96.84
3670.00,96.83
3669.00,96.82
3668.00,96.81
3667.00,96.81
3666.00,96.80
3665.00,96.79
3664.00,96.79
3663.00,96.78
3662.00,96.77
3661.00,96.76
3660.00,96.76
3659.00,96.75
3658.00,96.74
3657.00,96.73
3656.00,96.72
3655.00,96.71
3654.00,96.71
3653.00,96.70
3652.00,96.69
3651.00,96.68
3650.00,96.68
3649.00,96.67
3648.00,96.67
3647.00,96.66
3646.00,96.66
3645.00,96.65
3644.00,96.65
3643.00,96.64
3642.00,96.63
3641.00,96.63
3640.00,96.63
3639.00,96.63
3638.00,96.63
3637.00,96.63
3636.00,96.62
3635.00,96.62
3634.00,96.61
3633.00,96.61
3632.00,96.61
3631.00,96.61
3630.00,96.61
3629.00,96.61
3628.00,96.61
3627.00,96.61
3626.00,96.61
3625.00,96.61
3624.00,96.61
3623.00,96.62
3622.00,96.63
3621.00,96.63
3620.00,96.64
3619.00,96.64
3618.00,96.64
3617.00,96.65
3616.00,96.65
3615.00,96.65
3614.00,96.65
3613.00,96.66
3612.00,96.67
3611.00,96.67
3610.00,96.67
3609.00,96.68
3608.00,96.69
3607.00,96.70
3606.00,96.71
3605.00,96.71
3604.00,96.71
3603.00,96.71
3602.00,96.72
3601.00,96.72
3600.00,96.73
3599.00,96.74
3598.00,96.74
3597.00,96.75
3596.00,96.75
3595.00,96.75
3594.00,96.76
3593.00,96.76
3592.00,96.76
3591.00,96.76
3590.00,96.76
3589.00,96.77
3588.00,96.77
3587.00,96.78
3586.00,96.78
3585.00,96.78
3584.00,96.77
3583.00,96.77
3582.00,96.76
3581.00,96.76
3580.00,96.75
3579.00,96.75
3578.00,96.75
3577.00,96.74
3576.00,96.73
3575.00,96.73
3574.00,96.72
3573.00,96.71
3572.00,96.71
3571.00,96.71
3570.00,96.70
3569.00,96.70
3568.00,96.70
3567.00,96.70
3566.00,96.69
3565.00,96.69
3564.00,96.68
3563.00,96.67
3562.00,96.66
3561.00,96.66
3560.00,96.65
3559.00,96.65
3558.00,96.65
3557.00,96.65
3556.00,96.65
3555.00,96.65
3554.00,96.65
3553.00,96.64
3552.00,96.64
3551.00,96.63
3550.00,96.63
3549.00,96.63
3548.00,96.64
3547.00,96.64
3546.00,96.65
3545.00,96.65
3544.00,96.65
3543.00,96.65
3542.00,96.65
3541.00,96.66
3540.00,96.66
3539.00,96.66
3538.00,96.67
3537.00,96.67
3536.00,96.68
3535.00,96.69
3534.00,96.69
3533.00,96.69
3532.00,96.70
3531.00,96.70
3530.00,96.70
3529.00,96.71
3528.00,96.71
3527.00,96.72
3526.00,96.72
3525.00,96.73
3524.00,96.73
3523.00,96.74
3522.00,96.74
3521.00,96.74
3520.00,96.74
3519.00,96.75
3518.00,96.75
3517.00,96.76
3516.00,96.76
3515.00,96.76
3514.00,96.77
3513.00,96.77
3512.00,96.78
3511.00,96.79
3510.00,96.79
3509.00,96.79
3508.00,96.79
3507.00,96.79
3506.00,96.79
3505.00,96.80
3504.00,96.80
3503.00,96.80
3502.00,96.80
3501.00,96.80
3500.00,96.80
3499.00,96.81
3498.00,96.81
3497.00,96.82
3496.00,96.82
3495.00,96.82
3494.00,96.81
3493.00,96.81
3492.00,96.81
3491.00,96.81
3490.00,96.81
3489.00,96.81
3488.00,96.82
3487.00,96.82
3486.00,96.81
3485.00,96.81
3484.00,96.81
3483.00,96.81
3482.00,96.81
3481.00,96.82
3480.00,96.81
3479.00,96.81
3478.00,96.80
3477.00,96.79
3476.00,96.79
3475.00,96.79
3474.00,96.78
3473.00,96.78
3472.00,96.78
3471.00,96.78
3470.00,96.78
3469.00,96.77
3468.00,96.76
3467.00,96.75
3466.00,96.74
3465.00,96.73
3464.00,96.72
3463.00,96.71
3462.00,96.71
3461.00,96.70
3460.00,96.68
3459.00,96.66
3458.00,96.65
3457.00,96.63
3456.00,96.62
3455.00,96.60
3454.00,96.59
3453.00,96.57
3452.00,96.56
3451.00,96.55
3450.00,96.54
3449.00,96.52
3448.00,96.50
3447.00,96.48
3446.00,96.46
3445.00,96.43
3444.00,96.41
3443.00,96.39
3442.00,96.37
3441.00,96.36
3440.00,96.35
3439.00,96.34
3438.00,96.34
3437.00,96.33
3436.00,96.31
3435.00,96.29
3434.00,96.26
3433.00,96.25
3432.00,96.24
3431.00,96.24
3430.00,96.24
3429.00,96.25
3428.00,96.25
3427.00,96.25
3426.00,96.26
3425.00,96.28
3424.00,96.30
3423.00,96.33
3422.00,96.36
3421.00,96.39
3420.00,96.41
3419.00,96.43
3418.00,96.45
3417.00,96.48
3416.00,96.51
3415.00,96.54
3414.00,96.57
3413.00,96.59
3412.00,96.61
3411.00,96.63
3410.00,96.64
3409.00,96.65
3408.00,96.65
3407.00,96.66
3406.00,96.68
3405.00,96.70
3404.00,96.72
3403.00,96.75
3402.00,96.77
3401.00,96.78
3400.00,96.78
3399.00,96.78
3398.00,96.78
3397.00,96.78
3396.00,96.79
3395.00,96.80
3394.00,96.81
3393.00,96.82
3392.00,96.82
3391.00,96.81
3390.00,96.80
3389.00,96.80
3388.00,96.79
3387.00,96.79
3386.00,96.80
3385.00,96.80
3384.00,96.81
3383.00,96.82
3382.00,96.82
3381.00,96.82
3380.00,96.82
3379.00,96.82
3378.00,96.82
3377.00,96.82
3376.00,96.82
3375.00,96.82
3374.00,96.83
3373.00,96.83
3372.00,96.84
3371.00,96.85
3370.00,96.86
3369.00,96.86
3368.00,96.86
3367.00,96.85
3366.00,96.84
3365.00,96.83
3364.00,96.83
3363.00,96.82
3362.00,96.82
3361.00,96.82
3360.00,96.82
3359.00,96.81
3358.00,96.81
3357.00,96.81
3356.00,96.81
3355.00,96.81
3354.00,96.81
3353.00,96.81
3352.00,96.81
3351.00,96.81
3350.00,96.80
3349.00,96.79
3348.00,96.78
3347.00,96.77
3346.00,96.77
3345.00,96.77
3344.00,96.77
3343.00,96.77
3342.00,96.77
3341.00,96.77
3340.00,96.77
3339.00,96.77
3338.00,96.76
3337.00,96.76
3336.00,96.75
3335.00,96.75
3334.00,96.75
3333.00,96.75
3332.00,96.75
3331.00,96.75
3330.00,96.75
3329.00,96.76
3328.00,96.76
3327.00,96.77
3326.00,96.78
3325.00,96.79
3324.00,96.79
3323.00,96.79
3322.00,96.79
3321.00,96.79
3320.00,96.79
3319.00,96.79
3318.00,96.79
3317.00,96.79
3316.00,96.79
3315.00,96.79
3314.00,96.79
3313.00,96.79
3312.00,96.79
3311.00,96.79
3310.00,96.79
3309.00,96.79
3308.00,96.79
3307.00,96.79
3306.00,96.79
3305.00,96.79
3304.00,96.79
3303.00,96.79
3302.00,96.78
3301.00,96.78
3300.00,96.78
3299.00,96.78
3298.00,96.78
3297.00,96.79
3296.00,96.79
3295.00,96.79
3294.00,96.79
3293.00,96.79
3292.00,96.79
3291.00,96.79
3290.00,96.79
3289.00,96.79
3288.00,96.79
3287.00,96.78
3286.00,96.79
3285.00,96.79
3284.00,96.79
3283.00,96.80
3282.00,96.80
3281.00,96.80
3280.00,96.80
3279.00,96.80
3278.00,96.81
3277.00,96.81
3276.00,96.81
3275.00,96.81
3274.00,96.81
3273.00,96.81
3272.00,96.82
3271.00,96.81
3270.00,96.81
3269.00,96.81
3268.00,96.80
3267.00,96.80
3266.00,96.80
3265.00,96.80
3264.00,96.79
3263.00,96.79
3262.00,96.80
3261.00,96.80
3260.00,96.80
3259.00,96.80
3258.00,96.80
3257.00,96.80
3256.00,96.79
3255.00,96.79
3254.00,96.78
3253.00,96.78
3252.00,96.78
3251.00,96.78
3250.00,96.78
3249.00,96.79
3248.00,96.79
3247.00,96.79
3246.00,96.79
3245.00,96.79
3244.00,96.78
3243.00,96.78
3242.00,96.78
3241.00,96.78
3240.00,96.77
3239.00,96.77
3238.00,96.77
3237.00,96.77
3236.00,96.77
3235.00,96.77
3234.00,96.77
3233.00,96.77
3232.00,96.76
3231.00,96.76
3230.00,96.76
3229.00,96.76
3228.00,96.76
3227.00,96.76
3226.00,96.76
3225.00,96.76
3224.00,96.76
3223.00,96.77
3222.00,96.77
3221.00,96.77
3220.00,96.77
3219.00,96.77
3218.00,96.76
3217.00,96.76
3216.00,96.77
3215.00,96.77
3214.00,96.77
3213.00,96.77
3212.00,96.77
3211.00,96.76
3210.00,96.76
3209.00,96.76
3208.00,96.77
3207.00,96.77
3206.00,96.77
3205.00,96.77
3204.00,96.77
3203.00,96.77
3202.00,96.76
3201.00,96.76
3200.00,96.76
3199.00,96.76
3198.00,96.77
3197.00,96.76
3196.00,96.76
3195.00,96.76
3194.00,96.75
3193.00,96.75
3192.00,96.75
3191.00,96.76
3190.00,96.76
3189.00,96.75
3188.00,96.75
3187.00,96.75
3186.00,96.74
3185.00,96.74
3184.00,96.73
3183.00,96.73
3182.00,96.74
3181.00,96.74
3180.00,96.74
3179.00,96.74
3178.00,96.74
3177.00,96.73
3176.00,96.73
3175.00,96.73
3174.00,96.73
3173.00,96.73
3172.00,96.73
3171.00,96.73
3170.00,96.72
3169.00,96.72
3168.00,96.72
3167.00,96.72
3166.00,96.72
3165.00,96.72
3164.00,96.71
3163.00,96.71
3162.00,96.71
3161.00,96.71
3160.00,96.70
3159.00,96.70
3158.00,96.70
3157.00,96.70
3156.00,96.70
3155.00,96.69
3154.00,96.69
3153.00,96.69
3152.00,96.69
3151.00,96.69
3150.00,96.69
3149.00,96.68
3148.00,96.67
3147.00,96.66
3146.00,96.66
3145.00,96.66
3144.00,96.66
3143.00,96.65
3142.00,96.64
3141.00,96.63
3140.00,96.63
3139.00,96.62
3138.00,96.61
3137.00,96.60
3136.00,96.59
3135.00,96.57
3134.00,96.56
3133.00,96.55
3132.00,96.54
3131.00,96.53
3130.00,96.52
3129.00,96.51
3128.00,96.51
3127.00,96.51
3126.00,96.51
3125.00,96.51
3124.00,96.51
3123.00,96.51
3122.00,96.51
3121.00,96.51
3120.00,96.50
3119.00,96.49
3118.00,96.48
3117.00,96.47
3116.00,96.45
3115.00,96.44
3114.00,96.41
3113.00,96.39
3112.00,96.37
3111.00,96.35
3110.00,96.33
3109.00,96.32
3108.00,96.30
3107.00,96.28
3106.00,96.26
3105.00,96.25
3104.00,96.24
3103.00,96.24
3102.00,96.25
3101.00,96.26
3100.00,96.27
3099.00,96.28
3098.00,96.30
3097.00,96.31
3096.00,96.31
3095.00,96.32
3094.00,96.32
3093.00,96.31
3092.00,96.30
3091.00,96.29
3090.00,96.27
3089.00,96.25
3088.00,96.23
3087.00,96.21
3086.00,96.19
3085.00,96.17
3084.00,96.15
3083.00,96.14
3082.00,96.12
3081.00,96.11
3080.00,96.11
3079.00,96.10
3078.00,96.11
3077.00,96.10
3076.00,96.10
3075.00,96.10
3074.00,96.09
3073.00,96.08
3072.00,96.08
3071.00,96.07
3070.00,96.07
3069.00,96.07
3068.00,96.07
3067.00,96.07
3066.00,96.07
3065.00,96.07
3064.00,96.07
3063.00,96.07
3062.00,96.07
3061.00,96.06
3060.00,96.05
3059.00,96.04
3058.00,96.03
3057.00,96.01
3056.00,96.01
3055.00,96.00
3054.00,96.01
3053.00,96.03
3052.00,96.06
3051.00,96.09
3050.00,96.13
3049.00,96.18
3048.00,96.23
3047.00,96.28
3046.00,96.32
3045.00,96.36
3044.00,96.38
3043.00,96.40
3042.00,96.41
3041.00,96.42
3040.00,96.43
3039.00,96.44
3038.00,96.44
3037.00,96.44
3036.00,96.44
3035.00,96.43
3034.00,96.43
3033.00,96.43
3032.00,96.42
3031.00,96.40
3030.00,96.39
3029.00,96.37
3028.00,96.36
3027.00,96.34
3026.00,96.32
3025.00,96.29
3024.00,96.26
3023.00,96.23
3022.00,96.19
3021.00,96.16
3020.00,96.12
3019.00,96.08
3018.00,96.04
3017.00,96.00
3016.00,95.96
3015.00,95.93
3014.00,95.90
3013.00,95.88
3012.00,95.85
3011.00,95.82
3010.00,95.80
3009.00,95.77
3008.00,95.75
3007.00,95.73
3006.00,95.70
3005.00,95.68
3004.00,95.66
3003.00,95.64
3002.00,95.62
3001.00,95.60
3000.00,95.57
2999.00,95.55
2998.00,95.53
2997.00,95.51
2996.00,95.49
2995.00,95.46
2994.00,95.43
2993.00,95.40
2992.00,95.36
2991.00,95.32
2990.00,95.27
2989.00,95.22
2988.00,95.17
2987.00,95.12
2986.00,95.06
2985.00,95.00
2984.00,94.93
2983.00,94.86
2982.00,94.78
2981.00,94.71
2980.00,94.62
2979.00,94.54
2978.00,94.45
2977.00,94.37
2976.00,94.28
2975.00,94.20
2974.00,94.12
2973.00,94.04
2972.00,93.97
2971.00,93.91
2970.00,93.86
2969.00,93.83
2968.00,93.80
2967.00,93.79
2966.00,93.79
2965.00,93.79
2964.00,93.81
2963.00,93.83
2962.00,93.86
2961.00,93.90
2960.00,93.94
2959.00,94.00
2958.00,94.06
2957.00,94.12
2956.00,94.19
2955.00,94.27
2954.00,94.35
2953.00,94.44
2952.00,94.52
2951.00,94.61
2950.00,94.70
2949.00,94.80
2948.00,94.89
2947.00,94.98
2946.00,95.07
2945.00,95.16
2944.00,95.25
2943.00,95.33
2942.00,95.41
2941.00,95.47
2940.00,95.54
2939.00,95.59
2938.00,95.64
2937.00,95.69
2936.00,95.73
2935.00,95.77
2934.00,95.80
2933.00,95.82
2932.00,95.84
2931.00,95.86
2930.00,95.87
2929.00,95.87
2928.00,95.87
2927.00,95.87
2926.00,95.87
2925.00,95.86
2924.00,95.85
2923.00,95.83
2922.00,95.81
2921.00,95.78
2920.00,95.76
2919.00,95.73
2918.00,95.70
2917.00,95.67
2916.00,95.63
2915.00,95.58
2914.00,95.53
2913.00,95.48
2912.00,95.43
2911.00,95.38
2910.00,95.34
2909.00,95.31
2908.00,95.30
2907.00,95.30
2906.00,95.31
2905.00,95.34
2904.00,95.37
2903.00,95.41
2902.00,95.45
2901.00,95.49
2900.00,95.52
2899.00,95.54
2898.00,95.56
2897.00,95.57
2896.00,95.58
2895.00,95.58
2894.00,95.59
2893.00,95.59
2892.00,95.59
2891.00,95.60
2890.00,95.60
2889.00,95.61
2888.00,95.62
2887.00,95.63
2886.00,95.64
2885.00,95.66
2884.00,95.68
2883.00,95.69
2882.00,95.71
2881.00,95.73
2880.00,95.75
2879.00,95.77
2878.00,95.78
2877.00,95.80
2876.00,95.81
2875.00,95.82
2874.00,95.83
2873.00,95.85
2872.00,95.86
2871.00,95.87
2870.00,95.88
2869.00,95.89
2868.00,95.90
2867.00,95.91
2866.00,95.92
2865.00,95.93
2864.00,95.94
2863.00,95.96
2862.00,95.97
2861.00,95.98
2860.00,95.99
2859.00,96.00
2858.00,96.01
2857.00,96.02
2856.00,96.03
2855.00,96.05
2854.00,96.06
2853.00,96.07
2852.00,96.09
2851.00,96.11
2850.00,96.13
2849.00,96.15
2848.00,96.17
2847.00,96.19
2846.00,96.21
2845.00,96.22
2844.00,96.24
2843.00,96.25
2842.00,96.26
2841.00,96.27
2840.00,96.29
2839.00,96.30
2838.00,96.31
2837.00,96.32
2836.00,96.32
2835.00,96.33
2834.00,96.34
2833.00,96.34
2832.00,96.35
2831.00,96.36
2830.00,96.36
2829.00,96.37
2828.00,96.38
2827.00,96.38
2826.00,96.39
2825.00,96.40
2824.00,96.40
2823.00,96.41
2822.00,96.41
2821.00,96.41
2820.00,96.41
2819.00,96.41
2818.00,96.41
2817.00,96.41
2816.00,96.41
2815.00,96.40
2814.00,96.40
2813.00,96.40
2812.00,96.40
2811.00,96.40
2810.00,96.40
2809.00,96.40
2808.00,96.39
2807.00,96.39
2806.00,96.39
2805.00,96.39
2804.00,96.40
2803.00,96.40
2802.00,96.41
2801.00,96.41
2800.00,96.41
2799.00,96.42
2798.00,96.43
2797.00,96.44
2796.00,96.45
2795.00,96.45
2794.00,96.46
2793.00,96.46
2792.00,96.47
2791.00,96.47
2790.00,96.47
2789.00,96.48
2788.00,96.48
2787.00,96.49
2786.00,96.49
2785.00,96.50
2784.00,96.50
2783.00,96.51
2782.00,96.51
2781.00,96.52
2780.00,96.52
2779.00,96.52
2778.00,96.53
2777.00,96.53
2776.00,96.53
2775.00,96.53
2774.00,96.53
2773.00,96.53
2772.00,96.53
2771.00,96.53
2770.00,96.54
2769.00,96.54
2768.00,96.54
2767.00,96.54
2766.00,96.54
2765.00,96.54
2764.00,96.54
2763.00,96.54
2762.00,96.55
2761.00,96.55
2760.00,96.55
2759.00,96.55
2758.00,96.55
2757.00,96.55
2756.00,96.55
2755.00,96.55
2754.00,96.55
2753.00,96.55
2752.00,96.55
2751.00,96.55
2750.00,96.56
2749.00,96.56
2748.00,96.56
2747.00,96.56
2746.00,96.56
2745.00,96.56
2744.00,96.56
2743.00,96.56
2742.00,96.57
2741.00,96.57
2740.00,96.57
2739.00,96.57
2738.00,96.58
2737.00,96.58
2736.00,96.58
2735.00,96.59
2734.00,96.59
2733.00,96.60
2732.00,96.60
2731.00,96.60
2730.00,96.61
2729.00,96.61
2728.00,96.61
2727.00,96.61
2726.00,96.62
2725.00,96.62
2724.00,96.62
2723.00,96.62
2722.00,96.63
2721.00,96.63
2720.00,96.63
2719.00,96.63
2718.00,96.64
2717.00,96.64
2716.00,96.64
2715.00,96.64
2714.00,96.64
2713.00,96.64
2712.00,96.65
2711.00,96.65
2710.00,96.65
2709.00,96.65
2708.00,96.65
2707.00,96.66
2706.00,96.66
2705.00,96.66
2704.00,96.66
2703.00,96.66
2702.00,96.66
2701.00,96.66
2700.00,96.66
2699.00,96.67
2698.00,96.67
2697.00,96.67
2696.00,96.67
2695.00,96.68
2694.00,96.68
2693.00,96.68
2692.00,96.68
2691.00,96.68
2690.00,96.68
2689.00,96.68
2688.00,96.68
2687.00,96.68
2686.00,96.68
2685.00,96.68
2684.00,96.68
2683.00,96.68
2682.00,96.68
2681.00,96.68
2680.00,96.68
2679.00,96.68
2678.00,96.68
2677.00,96.68
2676.00,96.68
2675.00,96.68
2674.00,96.68
2673.00,96.68
2672.00,96.68
2671.00,96.68
2670.00,96.69
2669.00,96.69
2668.00,96.69
2667.00,96.68
2666.00,96.67
2665.00,96.67
2664.00,96.66
2663.00,96.65
2662.00,96.64
2661.00,96.62
2660.00,96.61
2659.00,96.61
2658.00,96.60
2657.00,96.59
2656.00,96.58
2655.00,96.57
2654.00,96.57
2653.00,96.56
2652.00,96.55
2651.00,96.55
2650.00,96.55
2649.00,96.54
2648.00,96.53
2647.00,96.53
2646.00,96.52
2645.00,96.52
2644.00,96.51
2643.00,96.51
2642.00,96.50
2641.00,96.50
2640.00,96.49
2639.00,96.48
2638.00,96.48
2637.00,96.47
2636.00,96.47
2635.00,96.46
2634.00,96.45
2633.00,96.45
2632.00,96.44
2631.00,96.44
2630.00,96.43
2629.00,96.43
2628.00,96.43
2627.00,96.43
2626.00,96.43
2625.00,96.43
2624.00,96.43
2623.00,96.43
2622.00,96.43
2621.00,96.43
2620.00,96.43
2619.00,96.43
2618.00,96.43
2617.00,96.43
2616.00,96.43
2615.00,96.43
2614.00,96.43
2613.00,96.43
2612.00,96.42
2611.00,96.42
2610.00,96.42
2609.00,96.42
2608.00,96.42
2607.00,96.42
2606.00,96.42
2605.00,96.42
2604.00,96.41
2603.00,96.41
2602.00,96.41
2601.00,96.40
2600.00,96.40
2599.00,96.40
2598.00,96.40
2597.00,96.39
2596.00,96.39
2595.00,96.38
2594.00,96.38
2593.00,96.38
2592.00,96.37
2591.00,96.37
2590.00,96.36
2589.00,96.36
2588.00,96.35
2587.00,96.35
2586.00,96.35
2585.00,96.35
2584.00,96.35
2583.00,96.35
2582.00,96.35
2581.00,96.34
2580.00,96.34
2579.00,96.35
2578.00,96.35
2577.00,96.35
2576.00,96.35
2575.00,96.35
2574.00,96.35
2573.00,96.35
2572.00,96.35
2571.00,96.35
2570.00,96.35
2569.00,96.35
2568.00,96.35
2567.00,96.35
2566.00,96.35
2565.00,96.35
2564.00,96.34
2563.00,96.34
2562.00,96.34
2561.00,96.34
2560.00,96.34
2559.00,96.35
2558.00,96.35
2557.00,96.35
2556.00,96.35
2555.00,96.35
2554.00,96.35
2553.00,96.34
2552.00,96.34
2551.00,96.34
2550.00,96.34
2549.00,96.34
2548.00,96.35
2547.00,96.35
2546.00,96.36
2545.00,96.36
2544.00,96.36
2543.00,96.36
2542.00,96.36
2541.00,96.36
2540.00,96.35
2539.00,96.35
2538.00,96.35
2537.00,96.34
2536.00,96.34
2535.00,96.35
2534.00,96.35
2533.00,96.35
2532.00,96.35
2531.00,96.36
2530.00,96.36
2529.00,96.37
2528.00,96.37
2527.00,96.37
2526.00,96.37
2525.00,96.37
2524.00,96.38
2523.00,96.37
2522.00,96.37
2521.00,96.37
2520.00,96.37
2519.00,96.37
2518.00,96.38
2517.00,96.39
2516.00,96.39
2515.00,96.39
2514.00,96.40
2513.00,96.40
2512.00,96.40
2511.00,96.41
2510.00,96.41
2509.00,96.41
2508.00,96.42
2507.00,96.42
2506.00,96.43
2505.00,96.43
2504.00,96.43
2503.00,96.43
2502.00,96.43
2501.00,96.43
2500.00,96.43
2499.00,96.44
2498.00,96.45
2497.00,96.45
2496.00,96.45
2495.00,96.45
2494.00,96.45
2493.00,96.45
2492.00,96.46
2491.00,96.46
2490.00,96.47
2489.00,96.48
2488.00,96.48
2487.00,96.48
2486.00,96.49
2485.00,96.49
2484.00,96.50
2483.00,96.51
2482.00,96.52
2481.00,96.52
2480.00,96.52
2479.00,96.52
2478.00,96.51
2477.00,96.52
2476.00,96.52
2475.00,96.52
2474.00,96.53
2473.00,96.53
2472.00,96.53
2471.00,96.54
2470.00,96.54
2469.00,96.54
2468.00,96.54
2467.00,96.54
2466.00,96.54
2465.00,96.54
2464.00,96.54
2463.00,96.53
2462.00,96.54
2461.00,96.54
2460.00,96.53
2459.00,96.52
2458.00,96.51
2457.00,96.50
2456.00,96.50
2455.00,96.49
2454.00,96.50
2453.00,96.50
2452.00,96.51
2451.00,96.51
2450.00,96.51
2449.00,96.51
2448.00,96.51
2447.00,96.52
2446.00,96.52
2445.00,96.53
2444.00,96.53
2443.00,96.52
2442.00,96.52
2441.00,96.52
2440.00,96.52
2439.00,96.52
2438.00,96.53
2437.00,96.53
2436.00,96.53
2435.00,96.53
2434.00,96.53
2433.00,96.53
2432.00,96.53
2431.00,96.52
2430.00,96.52
2429.00,96.52
2428.00,96.51
2427.00,96.50
2426.00,96.50
2425.00,96.49
2424.00,96.49
2423.00,96.49
2422.00,96.49
2421.00,96.49
2420.00,96.48
2419.00,96.48
2418.00,96.48
2417.00,96.47
2416.00,96.47
2415.00,96.47
2414.00,96.47
2413.00,96.47
2412.00,96.46
2411.00,96.45
2410.00,96.44
2409.00,96.44
2408.00,96.44
2407.00,96.45
2406.00,96.46
2405.00,96.46
2404.00,96.46
2403.00,96.46
2402.00,96.46
2401.00,96.46
2400.00,96.45
2399.00,96.45
2398.00,96.45
2397.00,96.44
2396.00,96.44
2395.00,96.44
2394.00,96.44
2393.00,96.44
2392.00,96.45
2391.00,96.45
2390.00,96.45
2389.00,96.45
2388.00,96.45
2387.00,96.45
2386.00,96.46
2385.00,96.47
2384.00,96.47
2383.00,96.48
2382.00,96.50
2381.00,96.51
2380.00,96.52
2379.00,96.54
2378.00,96.56
2377.00,96.56
2376.00,96.56
2375.00,96.56
2374.00,96.56
2373.00,96.57
2372.00,96.57
2371.00,96.57
2370.00,96.58
2369.00,96.59
2368.00,96.60
2367.00,96.61
2366.00,96.62
2365.00,96.61
2364.00,96.60
2363.00,96.59
2362.00,96.58
2361.00,96.58
2360.00,96.59
2359.00,96.60
2358.00,96.61
2357.00,96.62
2356.00,96.62
2355.00,96.62
2354.00,96.62
2353.00,96.62
2352.00,96.63
2351.00,96.63
2350.00,96.62
2349.00,96.63
2348.00,96.64
2347.00,96.66
2346.00,96.67
2345.00,96.66
2344.00,96.64
2343.00,96.62
2342.00,96.61
2341.00,96.60
2340.00,96.59
2339.00,96.58
2338.00,96.58
2337.00,96.58
2336.00,96.58
2335.00,96.58
2334.00,96.59
2333.00,96.61
2332.00,96.61
2331.00,96.62
2330.00,96.62
2329.00,96.61
2328.00,96.58
2327.00,96.53
2326.00,96.46
2325.00,96.39
2324.00,96.33
2323.00,96.32
2322.00,96.34
2321.00,96.36
2320.00,96.38
2319.00,96.40
2318.00,96.42
2317.00,96.44
2316.00,96.46
2315.00,96.47
2314.00,96.48
2313.00,96.48
2312.00,96.48
2311.00,96.48
2310.00,96.48
2309.00,96.48
2308.00,96.48
2307.00,96.48
2306.00,96.47
2305.00,96.46
2304.00,96.45
2303.00,96.44
2302.00,96.42
2301.00,96.40
2300.00,96.38
2299.00,96.36
2298.00,96.34
2297.00,96.32
2296.00,96.30
2295.00,96.28
2294.00,96.26
2293.00,96.23
2292.00,96.20
2291.00,96.17
2290.00,96.14
2289.00,96.11
2288.00,96.09
2287.00,96.07
2286.00,96.05
2285.00,96.05
2284.00,96.06
2283.00,96.07
2282.00,96.08
2281.00,96.10
2280.00,96.12
2279.00,96.13
2278.00,96.14
2277.00,96.15
2276.00,96.16
2275.00,96.16
2274.00,96.17
2273.00,96.17
2272.00,96.18
2271.00,96.18
2270.00,96.18
2269.00,96.18
2268.00,96.18
2267.00,96.19
2266.00,96.20
2265.00,96.20
2264.00,96.20
2263.00,96.20
2262.00,96.19
2261.00,96.19
2260.00,96.18
2259.00,96.18
2258.00,96.17
2257.00,96.17
2256.00,96.17
2255.00,96.19
2254.00,96.21
2253.00,96.22
2252.00,96.23
2251.00,96.22
2250.00,96.22
2249.00,96.21
2248.00,96.21
2247.00,96.21
2246.00,96.21
2245.00,96.21
2244.00,96.21
2243.00,96.21
2242.00,96.20
2241.00,96.19
2240.00,96.18
2239.00,96.18
2238.00,96.19
2237.00,96.20
2236.00,96.21
2235.00,96.21
2234.00,96.22
2233.00,96.23
2232.00,96.23
2231.00,96.23
2230.00,96.22
2229.00,96.23
2228.00,96.23
2227.00,96.23
2226.00,96.23
2225.00,96.23
2224.00,96.23
2223.00,96.23
2222.00,96.23
2221.00,96.24
2220.00,96.24
2219.00,96.25
2218.00,96.26
2217.00,96.26
2216.00,96.26
2215.00,96.26
2214.00,96.25
2213.00,96.25
2212.00,96.25
2211.00,96.26
2210.00,96.26
2209.00,96.25
2208.00,96.25
2207.00,96.24
2206.00,96.24
2205.00,96.25
2204.00,96.27
2203.00,96.27
2202.00,96.27
2201.00,96.27
2200.00,96.26
2199.00,96.26
2198.00,96.26
2197.00,96.26
2196.00,96.25
2195.00,96.24
2194.00,96.23
2193.00,96.23
2192.00,96.22
2191.00,96.21
2190.00,96.19
2189.00,96.17
2188.00,96.16
2187.00,96.14
2186.00,96.14
2185.00,96.14
2184.00,96.16
2183.00,96.20
2182.00,96.24
2181.00,96.27
2180.00,96.27
2179.00,96.26
2178.00,96.26
2177.00,96.27
2176.00,96.29
2175.00,96.31
2174.00,96.31
2173.00,96.29
2172.00,96.24
2171.00,96.17
2170.00,96.10
2169.00,96.04
2168.00,95.98
2167.00,95.94
2166.00,95.91
2165.00,95.89
2164.00,95.85
2163.00,95.80
2162.00,95.76
2161.00,95.81
2160.00,95.98
2159.00,96.25
2158.00,96.52
2157.00,96.70
2156.00,96.76
2155.00,96.73
2154.00,96.68
2153.00,96.64
2152.00,96.59
2151.00,96.55
2150.00,96.52
2149.00,96.51
2148.00,96.50
2147.00,96.51
2146.00,96.53
2145.00,96.53
2144.00,96.53
2143.00,96.52
2142.00,96.51
2141.00,96.50
2140.00,96.50
2139.00,96.50
2138.00,96.51
2137.00,96.52
2136.00,96.55
2135.00,96.60
2134.00,96.65
2133.00,96.68
2132.00,96.67
2131.00,96.64
2130.00,96.60
2129.00,96.56
2128.00,96.52
2127.00,96.48
2126.00,96.45
2125.00,96.43
2124.00,96.41
2123.00,96.39
2122.00,96.37
2121.00,96.35
2120.00,96.32
2119.00,96.30
2118.00,96.27
2117.00,96.25
2116.00,96.22
2115.00,96.19
2114.00,96.16
2113.00,96.14
2112.00,96.14
2111.00,96.13
2110.00,96.14
2109.00,96.14
2108.00,96.15
2107.00,96.15
2106.00,96.16
2105.00,96.16
2104.00,96.16
2103.00,96.16
2102.00,96.16
2101.00,96.15
2100.00,96.15
2099.00,96.15
2098.00,96.16
2097.00,96.19
2096.00,96.23
2095.00,96.27
2094.00,96.29
2093.00,96.30
2092.00,96.29
2091.00,96.28
2090.00,96.27
2089.00,96.26
2088.00,96.24
2087.00,96.23
2086.00,96.22
2085.00,96.22
2084.00,96.21
2083.00,96.20
2082.00,96.20
2081.00,96.20
2080.00,96.20
2079.00,96.22
2078.00,96.23
2077.00,96.25
2076.00,96.25
2075.00,96.25
2074.00,96.25
2073.00,96.25
2072.00,96.25
2071.00,96.26
2070.00,96.28
2069.00,96.30
2068.00,96.32
2067.00,96.34
2066.00,96.35
2065.00,96.36
2064.00,96.37
2063.00,96.38
2062.00,96.39
2061.00,96.40
2060.00,96.41
2059.00,96.41
2058.00,96.41
2057.00,96.40
2056.00,96.40
2055.00,96.40
2054.00,96.40
2053.00,96.35
2052.00,96.28
2051.00,96.21
2050.00,96.19
2049.00,96.22
2048.00,96.28
2047.00,96.33
2046.00,96.36
2045.00,96.38
2044.00,96.39
2043.00,96.39
2042.00,96.38
2041.00,96.37
2040.00,96.35
2039.00,96.34
2038.00,96.33
2037.00,96.33
2036.00,96.34
2035.00,96.36
2034.00,96.40
2033.00,96.43
2032.00,96.45
2031.00,96.47
2030.00,96.48
2029.00,96.50
2028.00,96.51
2027.00,96.52
2026.00,96.53
2025.00,96.54
2024.00,96.53
2023.00,96.53
2022.00,96.53
2021.00,96.53
2020.00,96.52
2019.00,96.51
2018.00,96.50
2017.00,96.49
2016.00,96.48
2015.00,96.47
2014.00,96.47
2013.00,96.48
2012.00,96.48
2011.00,96.47
2010.00,96.47
2009.00,96.47
2008.00,96.50
2007.00,96.54
2006.00,96.59
2005.00,96.61
2004.00,96.60
2003.00,96.57
2002.00,96.54
2001.00,96.51
2000.00,96.48
1999.00,96.44
1998.00,96.40
1997.00,96.38
1996.00,96.36
1995.00,96.34
1994.00,96.33
1993.00,96.32
1992.00,96.31
1991.00,96.29
1990.00,96.26
1989.00,96.23
1988.00,96.21
1987.00,96.18
1986.00,96.15
1985.00,96.11
1984.00,96.07
1983.00,96.02
1982.00,95.95
1981.00,95.89
1980.00,95.86
1979.00,95.87
1978.00,95.96
1977.00,96.06
1976.00,96.15
1975.00,96.19
1974.00,96.20
1973.00,96.18
1972.00,96.15
1971.00,96.11
1970.00,96.09
1969.00,96.10
1968.00,96.09
1967.00,96.08
1966.00,96.05
1965.00,96.02
1964.00,95.98
1963.00,95.95
1962.00,95.93
1961.00,95.94
1960.00,95.95
1959.00,95.98
1958.00,96.00
1957.00,96.01
1956.00,96.00
1955.00,95.99
1954.00,95.98
1953.00,95.98
1952.00,95.99
1951.00,95.99
1950.00,96.00
1949.00,96.02
1948.00,96.05
1947.00,96.08
1946.00,96.11
1945.00,96.16
1944.00,96.19
1943.00,96.23
1942.00,96.27
1941.00,96.30
1940.00,96.32
1939.00,96.34
1938.00,96.38
1937.00,96.41
1936.00,96.44
1935.00,96.46
1934.00,96.49
1933.00,96.52
1932.00,96.55
1931.00,96.58
1930.00,96.61
1929.00,96.63
1928.00,96.65
1927.00,96.66
1926.00,96.68
1925.00,96.71
1924.00,96.74
1923.00,96.77
1922.00,96.78
1921.00,96.77
1920.00,96.76
1919.00,96.75
1918.00,96.75
1917.00,96.78
1916.00,96.80
1915.00,96.81
1914.00,96.83
1913.00,96.84
1912.00,96.86
1911.00,96.87
1910.00,96.89
1909.00,96.91
1908.00,96.92
1907.00,96.93
1906.00,96.94
1905.00,96.95
1904.00,96.96
1903.00,96.97
1902.00,96.98
1901.00,96.99
1900.00,96.99
1899.00,97.00
1898.00,97.01
1897.00,97.02
1896.00,97.04
1895.00,97.05
1894.00,97.06
1893.00,97.06
1892.00,97.06
1891.00,97.07
1890.00,97.08
1889.00,97.10
1888.00,97.10
1887.00,97.11
1886.00,97.12
1885.00,97.13
1884.00,97.14
1883.00,97.14
1882.00,97.14
1881.00,97.14
1880.00,97.14
1879.00,97.15
1878.00,97.16
1877.00,97.17
1876.00,97.17
1875.00,97.17
1874.00,97.17
1873.00,97.18
1872.00,97.19
1871.00,97.18
1870.00,97.18
1869.00,97.19
1868.00,97.21
1867.00,97.22
1866.00,97.21
1865.00,97.20
1864.00,97.19
1863.00,97.18
1862.00,97.17
1861.00,97.17
1860.00,97.17
1859.00,97.17
1858.00,97.16
1857.00,97.15
1856.00,97.14
1855.00,97.12
1854.00,97.11
1853.00,97.09
1852.00,97.08
1851.00,97.06
1850.00,97.06
1849.00,97.05
1848.00,97.04
1847.00,97.02
1846.00,96.99
1845.00,96.96
1844.00,96.93
1843.00,96.93
1842.00,96.93
1841.00,96.92
1840.00,96.90
1839.00,96.87
1838.00,96.85
1837.00,96.83
1836.00,96.81
1835.00,96.79
1834.00,96.77
1833.00,96.75
1832.00,96.73
1831.00,96.71
1830.00,96.69
1829.00,96.69
1828.00,96.69
1827.00,96.68
1826.00,96.67
1825.00,96.66
1824.00,96.66
1823.00,96.66
1822.00,96.66
1821.00,96.66
1820.00,96.67
1819.00,96.69
1818.00,96.72
1817.00,96.75
1816.00,96.76
1815.00,96.76
1814.00,96.76
1813.00,96.76
1812.00,96.76
1811.00,96.77
1810.00,96.77
1809.00,96.78
1808.00,96.78
1807.00,96.78
1806.00,96.79
1805.00,96.80
1804.00,96.81
1803.00,96.82
1802.00,96.83
1801.00,96.83
1800.00,96.84
1799.00,96.84
1798.00,96.84
1797.00,96.86
1796.00,96.87
1795.00,96.86
1794.00,96.85
1793.00,96.84
1792.00,96.84
1791.00,96.85
1790.00,96.86
1789.00,96.87
1788.00,96.86
1787.00,96.85
1786.00,96.85
1785.00,96.85
1784.00,96.86
1783.00,96.85
1782.00,96.84
1781.00,96.85
1780.00,96.85
1779.00,96.84
1778.00,96.83
1777.00,96.83
1776.00,96.83
1775.00,96.81
1774.00,96.79
1773.00,96.76
1772.00,96.74
1771.00,96.71
1770.00,96.68
1769.00,96.66
1768.00,96.63
1767.00,96.58
1766.00,96.54
1765.00,96.49
1764.00,96.44
1763.00,96.35
1762.00,96.26
1761.00,96.19
1760.00,96.12
1759.00,96.02
1758.00,95.88
1757.00,95.71
1756.00,95.51
1755.00,95.30
1754.00,95.06
1753.00,94.78
1752.00,94.41
1751.00,93.91
1750.00,93.30
1749.00,92.61
1748.00,91.81
1747.00,90.90
1746.00,89.90
1745.00,88.77
1744.00,87.50
1743.00,86.13
1742.00,84.68
1741.00,83.09
1740.00,81.35
1739.00,79.64
1738.00,78.19
1737.00,76.94
1736.00,75.58
1735.00,73.76
1734.00,71.63
1733.00,69.81
1732.00,68.38
1731.00,66.99
1730.00,65.48
1729.00,63.95
1728.00,62.48
1727.00,61.07
1726.00,59.65
1725.00,58.22
1724.00,56.77
1723.00,55.34
1722.00,54.01
1721.00,52.81
1720.00,51.62
1719.00,50.22
1718.00,48.62
1717.00,47.21
1716.00,46.18
1715.00,45.39
1714.00,44.82
1713.00,44.63
1712.00,44.80
1711.00,45.26
1710.00,45.99
1709.00,47.05
1708.00,48.44
1707.00,50.18
1706.00,52.29
1705.00,54.52
1704.00,56.46
1703.00,58.05
1702.00,59.70
1701.00,61.96
1700.00,64.51
1699.00,66.44
1698.00,67.77
1697.00,69.06
1696.00,70.55
1695.00,71.94
1694.00,72.99
1693.00,73.79
1692.00,74.53
1691.00,75.29
1690.00,76.05
1689.00,76.72
1688.00,77.26
1687.00,77.69
1686.00,78.08
1685.00,78.53
1684.00,79.06
1683.00,79.53
1682.00,79.95
1681.00,80.40
1680.00,80.88
1679.00,81.35
1678.00,81.77
1677.00,82.19
1676.00,82.66
1675.00,83.16
1674.00,83.61
1673.00,83.98
1672.00,84.32
1671.00,84.69
1670.00,85.10
1669.00,85.54
1668.00,85.95
1667.00,86.29
1666.00,86.60
1665.00,86.89
1664.00,87.22
1663.00,87.58
1662.00,87.93
1661.00,88.23
1660.00,88.49
1659.00,88.73
1658.00,88.94
1657.00,89.12
1656.00,89.28
1655.00,89.44
1654.00,89.65
1653.00,89.91
1652.00,90.14
1651.00,90.29
1650.00,90.37
1649.00,90.44
1648.00,90.56
1647.00,90.72
1646.00,90.86
1645.00,90.97
1644.00,91.08
1643.00,91.17
1642.00,91.26
1641.00,91.34
1640.00,91.42
1639.00,91.50
1638.00,91.56
1637.00,91.63
1636.00,91.72
1635.00,91.80
1634.00,91.87
1633.00,91.95
1632.00,92.02
1631.00,92.09
1630.00,92.15
1629.00,92.21
1628.00,92.28
1627.00,92.35
1626.00,92.40
1625.00,92.43
1624.00,92.46
1623.00,92.50
1622.00,92.51
1621.00,92.51
1620.00,92.47
1619.00,92.40
1618.00,92.28
1617.00,92.12
1616.00,91.98
1615.00,91.91
1614.00,91.90
1613.00,91.94
1612.00,92.01
1611.00,92.13
1610.00,92.27
1609.00,92.44
1608.00,92.61
1607.00,92.77
1606.00,92.93
1605.00,93.08
1604.00,93.22
1603.00,93.36
1602.00,93.48
1601.00,93.59
1600.00,93.69
1599.00,93.78
1598.00,93.86
1597.00,93.93
1596.00,93.98
1595.00,94.02
1594.00,94.04
1593.00,94.04
1592.00,94.02
1591.00,94.00
1590.00,93.96
1589.00,93.89
1588.00,93.79
1587.00,93.65
1586.00,93.45
1585.00,93.17
1584.00,92.84
1583.00,92.45
1582.00,92.05
1581.00,91.70
1580.00,91.43
1579.00,91.28
1578.00,91.29
1577.00,91.50
1576.00,91.86
1575.00,92.24
1574.00,92.55
1573.00,92.80
1572.00,93.02
1571.00,93.25
1570.00,93.50
1569.00,93.74
1568.00,93.92
1567.00,94.05
1566.00,94.15
1565.00,94.25
1564.00,94.33
1563.00,94.41
1562.00,94.45
1561.00,94.47
1560.00,94.50
1559.00,94.58
1558.00,94.65
1557.00,94.70
1556.00,94.76
1555.00,94.80
1554.00,94.84
1553.00,94.88
1552.00,94.92
1551.00,94.96
1550.00,94.99
1549.00,95.02
1548.00,95.03
1547.00,95.04
1546.00,95.06
1545.00,95.09
1544.00,95.12
1543.00,95.14
1542.00,95.14
1541.00,95.14
1540.00,95.16
1539.00,95.18
1538.00,95.18
1537.00,95.16
1536.00,95.12
1535.00,95.06
1534.00,95.00
1533.00,94.95
1532.00,94.92
1531.00,94.90
1530.00,94.87
1529.00,94.84
1528.00,94.81
1527.00,94.80
1526.00,94.80
1525.00,94.80
1524.00,94.82
1523.00,94.85
1522.00,94.90
1521.00,94.96
1520.00,95.00
1519.00,95.02
1518.00,95.02
1517.00,95.00
1516.00,94.97
1515.00,94.91
1514.00,94.78
1513.00,94.58
1512.00,94.29
1511.00,93.91
1510.00,93.42
1509.00,92.73
1508.00,91.70
1507.00,90.47
1506.00,89.65
1505.00,89.57
1504.00,90.00
1503.00,90.68
1502.00,91.48
1501.00,92.31
1500.00,93.06
1499.00,93.70
1498.00,94.22
1497.00,94.63
1496.00,94.91
1495.00,95.10
1494.00,95.20
1493.00,95.23
1492.00,95.22
1491.00,95.20
1490.00,95.18
1489.00,95.10
1488.00,94.97
1487.00,94.81
1486.00,94.64
1485.00,94.47
1484.00,94.28
1483.00,94.08
1482.00,93.87
1481.00,93.64
1480.00,93.42
1479.00,93.20
1478.00,92.99
1477.00,92.75
1476.00,92.49
1475.00,92.23
1474.00,91.93
1473.00,91.60
1472.00,91.37
1471.00,91.31
1470.00,91.39
1469.00,91.54
1468.00,91.68
1467.00,91.76
1466.00,91.77
1465.00,91.68
1464.00,91.55
1463.00,91.40
1462.00,91.24
1461.00,91.07
1460.00,90.89
1459.00,90.71
1458.00,90.51
1457.00,90.31
1456.00,90.17
1455.00,90.11
1454.00,90.08
1453.00,90.09
1452.00,90.13
1451.00,90.20
1450.00,90.29
1449.00,90.38
1448.00,90.49
1447.00,90.60
1446.00,90.69
1445.00,90.77
1444.00,90.83
1443.00,90.90
1442.00,90.97
1441.00,91.05
1440.00,91.14
1439.00,91.26
1438.00,91.44
1437.00,91.70
1436.00,92.03
1435.00,92.35
1434.00,92.64
1433.00,92.91
1432.00,93.19
1431.00,93.47
1430.00,93.73
1429.00,93.95
1428.00,94.11
1427.00,94.21
1426.00,94.26
1425.00,94.25
1424.00,94.19
1423.00,94.05
1422.00,93.84
1421.00,93.51
1420.00,92.95
1419.00,92.11
1418.00,91.05
1417.00,89.81
1416.00,88.36
1415.00,86.66
1414.00,84.75
1413.00,82.72
1412.00,80.76
1411.00,79.13
1410.00,78.06
1409.00,77.60
1408.00,77.76
1407.00,78.51
1406.00,79.74
1405.00,81.23
1404.00,82.72
1403.00,84.02
1402.00,85.10
1401.00,86.04
1400.00,86.91
1399.00,87.71
1398.00,88.37
1397.00,88.86
1396.00,89.26
1395.00,89.60
1394.00,89.88
1393.00,90.09
1392.00,90.23
1391.00,90.34
1390.00,90.42
1389.00,90.49
1388.00,90.56
1387.00,90.61
1386.00,90.66
1385.00,90.69
1384.00,90.70
1383.00,90.70
1382.00,90.69
1381.00,90.66
1380.00,90.59
1379.00,90.49
1378.00,90.37
1377.00,90.22
1376.00,90.06
1375.00,89.89
1374.00,89.72
1373.00,89.58
1372.00,89.48
1371.00,89.46
1370.00,89.53
1369.00,89.70
1368.00,89.97
1367.00,90.30
1366.00,90.68
1365.00,91.08
1364.00,91.50
1363.00,91.91
1362.00,92.25
1361.00,92.48
1360.00,92.61
1359.00,92.67
1358.00,92.68
1357.00,92.63
1356.00,92.52
1355.00,92.34
1354.00,92.07
1353.00,91.70
1352.00,91.21
1351.00,90.56
1350.00,89.74
1349.00,88.70
1348.00,87.46
1347.00,86.04
1346.00,84.47
1345.00,82.83
1344.00,81.25
1343.00,79.84
1342.00,78.72
1341.00,78.00
1340.00,77.76
1339.00,78.09
1338.00,78.93
1337.00,80.18
1336.00,81.72
1335.00,83.41
1334.00,85.12
1333.00,86.73
1332.00,88.14
1331.00,89.30
1330.00,90.18
1329.00,90.81
1328.00,91.23
1327.00,91.49
1326.00,91.61
1325.00,91.62
1324.00,91.56
1323.00,91.45
1322.00,91.30
1321.00,91.12
1320.00,90.92
1319.00,90.69
1318.00,90.44
1317.00,90.17
1316.00,89.89
1315.00,89.58
1314.00,89.26
1313.00,88.90
1312.00,88.52
1311.00,88.12
1310.00,87.71
1309.00,87.30
1308.00,86.89
1307.00,86.49
1306.00,86.08
1305.00,85.68
1304.00,85.24
1303.00,84.76
1302.00,84.21
1301.00,83.58
1300.00,82.86
1299.00,82.07
1298.00,81.23
1297.00,80.35
1296.00,79.45
1295.00,78.55
1294.00,77.66
1293.00,76.79
1292.00,75.93
1291.00,75.09
1290.00,74.28
1289.00,73.48
1288.00,72.70
1287.00,71.93
1286.00,71.19
1285.00,70.47
1284.00,69.75
1283.00,69.06
1282.00,68.40
1281.00,67.75
1280.00,67.10
1279.00,66.48
1278.00,65.87
1277.00,65.24
1276.00,64.59
1275.00,63.93
1274.00,63.24
1273.00,62.49
1272.00,61.69
1271.00,60.84
1270.00,59.95
1269.00,59.03
1268.00,58.08
1267.00,57.13
1266.00,56.22
1265.00,55.33
1264.00,54.48
1263.00,53.71
1262.00,53.03
1261.00,52.42
1260.00,51.89
1259.00,51.44
1258.00,51.08
1257.00,50.74
1256.00,50.40
1255.00,50.06
1254.00,49.69
1253.00,49.27
1252.00,48.77
1251.00,48.23
1250.00,47.65
1249.00,47.02
1248.00,46.33
1247.00,45.63
1246.00,44.95
1245.00,44.26
1244.00,43.58
1243.00,42.97
1242.00,42.46
1241.00,42.03
1240.00,41.72
1239.00,41.57
1238.00,41.60
1237.00,41.79
1236.00,42.14
1235.00,42.67
1234.00,43.37
1233.00,44.18
1232.00,45.07
1231.00,46.06
1230.00,47.12
1229.00,48.20
1228.00,49.28
1227.00,50.38
1226.00,51.51
1225.00,52.64
1224.00,53.76
1223.00,54.92
1222.00,56.12
1221.00,57.35
1220.00,58.58
1219.00,59.84
1218.00,61.10
1217.00,62.33
1216.00,63.51
1215.00,64.65
1214.00,65.75
1213.00,66.79
1212.00,67.78
1211.00,68.73
1210.00,69.64
1209.00,70.51
1208.00,71.36
1207.00,72.18
1206.00,72.98
1205.00,73.76
1204.00,74.51
1203.00,75.25
1202.00,75.97
1201.00,76.67
1200.00,77.35
1199.00,78.02
1198.00,78.67
1197.00,79.30
1196.00,79.91
1195.00,80.50
1194.00,81.05
1193.00,81.58
1192.00,82.07
1191.00,82.51
1190.00,82.92
1189.00,83.28
1188.00,83.60
1187.00,83.86
1186.00,84.06
1185.00,84.20
1184.00,84.27
1183.00,84.29
1182.00,84.25
1181.00,84.15
1180.00,84.02
1179.00,83.88
1178.00,83.75
1177.00,83.65
1176.00,83.61
1175.00,83.65
1174.00,83.78
1173.00,84.02
1172.00,84.36
1171.00,84.79
1170.00,85.29
1169.00,85.81
1168.00,86.30
1167.00,86.75
1166.00,87.12
1165.00,87.40
1164.00,87.60
1163.00,87.74
1162.00,87.81
1161.00,87.84
1160.00,87.82
1159.00,87.77
1158.00,87.67
1157.00,87.52
1156.00,87.33
1155.00,87.08
1154.00,86.79
1153.00,86.44
1152.00,86.04
1151.00,85.60
1150.00,85.12
1149.00,84.60
1148.00,84.04
1147.00,83.43
1146.00,82.77
1145.00,82.05
1144.00,81.28
1143.00,80.44
1142.00,79.53
1141.00,78.55
1140.00,77.50
1139.00,76.38
1138.00,75.20
1137.00,73.95
1136.00,72.64
1135.00,71.32
1134.00,70.01
1133.00,68.72
1132.00,67.49
1131.00,66.33
1130.00,65.25
1129.00,64.22
1128.00,63.24
1127.00,62.32
1126.00,61.44
1125.00,60.59
1124.00,59.75
1123.00,58.95
1122.00,58.22
1121.00,57.55
1120.00,56.98
1119.00,56.54
1118.00,56.24
1117.00,56.08
1116.00,56.03
1115.00,56.08
1114.00,56.18
1113.00,56.27
1112.00,56.28
1111.00,56.19
1110.00,55.94
1109.00,55.49
1108.00,54.82
1107.00,53.98
1106.00,53.04
1105.00,52.03
1104.00,50.98
1103.00,49.97
1102.00,49.01
1101.00,48.12
1100.00,47.29
1099.00,46.57
1098.00,45.97
1097.00,45.46
1096.00,45.04
1095.00,44.75
1094.00,44.58
1093.00,44.50
1092.00,44.51
1091.00,44.61
1090.00,44.79
1089.00,45.01
1088.00,45.28
1087.00,45.61
1086.00,46.01
1085.00,46.47
1084.00,46.99
1083.00,47.61
1082.00,48.34
1081.00,49.17
1080.00,50.10
1079.00,51.15
1078.00,52.29
1077.00,53.49
1076.00,54.72
1075.00,55.98
1074.00,57.25
1073.00,58.48
1072.00,59.66
1071.00,60.80
1070.00,61.91
1069.00,62.94
1068.00,63.91
1067.00,64.83
1066.00,65.70
1065.00,66.50
1064.00,67.25
1063.00,67.95
1062.00,68.62
1061.00,69.21
1060.00,69.73
1059.00,70.19
1058.00,70.57
1057.00,70.87
1056.00,71.10
1055.00,71.28
1054.00,71.39
1053.00,71.45
1052.00,71.45
1051.00,71.41
1050.00,71.36
1049.00,71.27
1048.00,71.18
1047.00,71.10
1046.00,71.05
1045.00,71.02
1044.00,71.03
1043.00,71.10
1042.00,71.23
1041.00,71.41
1040.00,71.64
1039.00,71.91
1038.00,72.22
1037.00,72.55
1036.00,72.89
1035.00,73.25
1034.00,73.62
1033.00,73.97
1032.00,74.29
1031.00,74.53
1030.00,74.60
1029.00,74.36
1028.00,73.68
1027.00,72.49
1026.00,70.84
1025.00,68.89
1024.00,66.83
1023.00,64.77
1022.00,62.73
1021.00,60.66
1020.00,58.60
1019.00,56.75
1018.00,55.36
1017.00,54.70
1016.00,54.96
1015.00,56.14
1014.00,58.04
1013.00,60.32
1012.00,62.63
1011.00,64.77
1010.00,66.63
1009.00,68.20
1008.00,69.53
1007.00,70.66
1006.00,71.62
1005.00,72.41
1004.00,73.08
1003.00,73.66
1002.00,74.17
1001.00,74.64
1000.00,75.07
999.00,75.47
998.00,75.84
997.00,76.15
996.00,76.43
995.00,76.67
994.00,76.87
993.00,77.03
992.00,77.15
991.00,77.24
990.00,77.32
989.00,77.39
988.00,77.45
987.00,77.51
986.00,77.57
985.00,77.60
984.00,77.59
983.00,77.53
982.00,77.41
981.00,77.22
980.00,76.95
979.00,76.61
978.00,76.21
977.00,75.75
976.00,75.26
975.00,74.79
974.00,74.36
973.00,74.03
972.00,73.81
971.00,73.74
970.00,73.81
969.00,74.00
968.00,74.27
967.00,74.62
966.00,75.02
965.00,75.43
964.00,75.86
963.00,76.29
962.00,76.72
961.00,77.13
960.00,77.53
959.00,77.91
958.00,78.28
957.00,78.62
956.00,78.94
955.00,79.24
954.00,79.52
953.00,79.78
952.00,80.03
951.00,80.27
950.00,80.49
949.00,80.69
948.00,80.87
947.00,81.05
946.00,81.22
945.00,81.38
944.00,81.53
943.00,81.67
942.00,81.82
941.00,81.95
940.00,82.08
939.00,82.20
938.00,82.31
937.00,82.41
936.00,82.50
935.00,82.60
934.00,82.71
933.00,82.82
932.00,82.93
931.00,83.04
930.00,83.15
929.00,83.24
928.00,83.34
927.00,83.45
926.00,83.57
925.00,83.67
924.00,83.78
923.00,83.87
922.00,83.96
921.00,84.04
920.00,84.11
919.00,84.17
918.00,84.22
917.00,84.25
916.00,84.26
915.00,84.25
914.00,84.22
913.00,84.17
912.00,84.10
911.00,83.99
910.00,83.84
909.00,83.66
908.00,83.45
907.00,83.21
906.00,82.97
905.00,82.72
904.00,82.47
903.00,82.25
902.00,82.06
901.00,81.89
900.00,81.76
899.00,81.68
898.00,81.64
897.00,81.64
896.00,81.66
895.00,81.71
894.00,81.77
893.00,81.83
892.00,81.89
891.00,81.92
890.00,81.91
889.00,81.85
888.00,81.73
887.00,81.55
886.00,81.28
885.00,80.92
884.00,80.44
883.00,79.85
882.00,79.14
881.00,78.32
880.00,77.39
879.00,76.37
878.00,75.27
877.00,74.04
876.00,72.65
875.00,71.08
874.00,69.46
873.00,68.11
872.00,67.42
871.00,67.63
870.00,68.62
869.00,70.05
868.00,71.54
867.00,72.87
866.00,73.97
865.00,74.84
864.00,75.51
863.00,76.03
862.00,76.44
861.00,76.73
860.00,76.93
859.00,77.06
858.00,77.12
857.00,77.13
856.00,77.07
855.00,76.99
854.00,76.87
853.00,76.71
852.00,76.50
851.00,76.23
850.00,75.94
849.00,75.66
848.00,75.43
847.00,75.32
846.00,75.33
845.00,75.46
844.00,75.68
843.00,75.96
842.00,76.28
841.00,76.61
840.00,76.94
839.00,77.27
838.00,77.61
837.00,77.95
836.00,78.28
835.00,78.63
834.00,78.98
833.00,79.30
832.00,79.61
831.00,79.89
830.00,80.17
829.00,80.42
828.00,80.65
827.00,80.86
826.00,81.07
825.00,81.26
824.00,81.44
823.00,81.60
822.00,81.74
821.00,81.86
820.00,81.96
819.00,82.05
818.00,82.13
817.00,82.20
816.00,82.25
815.00,82.31
814.00,82.38
813.00,82.44
812.00,82.48
811.00,82.54
810.00,82.61
809.00,82.68
808.00,82.76
807.00,82.83
806.00,82.90
805.00,82.96
804.00,83.02
803.00,83.11
802.00,83.21
801.00,83.29
800.00,83.30
799.00,83.18
798.00,82.85
797.00,82.30
796.00,81.56
795.00,80.79
794.00,80.16
793.00,79.79
792.00,79.74
791.00,79.97
790.00,80.39
789.00,80.91
788.00,81.43
787.00,81.95
786.00,82.46
785.00,82.94
784.00,83.38
783.00,83.78
782.00,84.14
781.00,84.47
780.00,84.78
779.00,85.08
778.00,85.37
777.00,85.63
776.00,85.88
775.00,86.11
774.00,86.36
773.00,86.60
772.00,86.84
771.00,87.10
770.00,87.36
769.00,87.62
768.00,87.88
767.00,88.13
766.00,88.39
765.00,88.64
764.00,88.88
763.00,89.11
762.00,89.34
761.00,89.55
760.00,89.75
759.00,89.95
758.00,90.15
757.00,90.33
756.00,90.51
755.00,90.69
754.00,90.86
753.00,91.01
752.00,91.15
751.00,91.27
750.00,91.37
749.00,91.42
748.00,91.40
747.00,91.29
746.00,91.06
745.00,90.65
744.00,90.01
743.00,89.09
742.00,87.83
741.00,86.16
740.00,84.07
739.00,81.61
738.00,78.86
737.00,75.94
736.00,72.93
735.00,69.93
734.00,66.97
733.00,64.03
732.00,61.07
731.00,58.09
730.00,55.06
729.00,51.96
728.00,48.83
727.00,45.78
726.00,43.00
725.00,40.69
724.00,39.05
723.00,38.18
722.00,38.07
721.00,38.62
720.00,39.72
719.00,41.24
718.00,43.05
717.00,45.03
716.00,47.05
715.00,49.03
714.00,50.87
713.00,52.52
712.00,53.99
711.00,55.30
710.00,56.48
709.00,57.55
708.00,58.55
707.00,59.47
706.00,60.33
705.00,61.13
704.00,61.89
703.00,62.64
702.00,63.43
701.00,64.27
700.00,65.16
699.00,66.07
698.00,66.97
697.00,67.83
696.00,68.62
695.00,69.32
694.00,69.94
693.00,70.49
692.00,70.98
691.00,71.41
690.00,71.79
689.00,72.13
688.00,72.42
687.00,72.66
686.00,72.87
685.00,73.03
684.00,73.14
683.00,73.22
682.00,73.28
681.00,73.34
680.00,73.44
679.00,73.59
678.00,73.83
677.00,74.11
676.00,74.43
675.00,74.75
674.00,75.05
673.00,75.33
672.00,75.58
671.00,75.80
670.00,76.02
669.00,76.26
668.00,76.48
667.00,76.64
666.00,76.77
665.00,76.91
664.00,77.06
663.00,77.21
662.00,77.34
661.00,77.46
660.00,77.56
659.00,77.64
658.00,77.70
657.00,77.77
656.00,77.84
655.00,77.93
654.00,78.04
653.00,78.16
652.00,78.28
651.00,78.40
650.00,78.51
