Created as New Dataset,PET Amorphous Film GF
cm-1,%T
4000.00,99.81
3999.00,99.80
3998.00,99.80
3997.00,99.81
3996.00,99.81
3995.00,99.81
3994.00,99.81
3993.00,99.81
3992.00,99.81
3991.00,99.80
3990.00,99.80
3989.00,99.80
3988.00,99.80
3987.00,99.80
3986.00,99.81
3985.00,99.81
3984.00,99.81
3983.00,99.81
3982.00,99.81
3981.00,99.81
3980.00,99.81
3979.00,99.81
3978.00,99.81
3977.00,99.81
3976.00,99.81
3975.00,99.81
3974.00,99.81
3973.00,99.81
3972.00,99.81
3971.00,99.81
3970.00,99.81
3969.00,99.81
3968.00,99.82
3967.00,99.82
3966.00,99.82
3965.00,99.82
3964.00,99.81
3963.00,99.81
3962.00,99.81
3961.00,99.81
3960.00,99.81
3959.00,99.81
3958.00,99.81
3957.00,99.81
3956.00,99.81
3955.00,99.81
3954.00,99.82
3953.00,99.82
3952.00,99.82
3951.00,99.81
3950.00,99.81
3949.00,99.81
3948.00,99.81
3947.00,99.82
3946.00,99.82
3945.00,99.82
3944.00,99.82
3943.00,99.82
3942.00,99.82
3941.00,99.82
3940.00,99.82
3939.00,99.82
3938.00,99.82
3937.00,99.82
3936.00,99.82
3935.00,99.82
3934.00,99.82
3933.00,99.81
3932.00,99.81
3931.00,99.81
3930.00,99.81
3929.00,99.81
3928.00,99.81
3927.00,99.81
3926.00,99.81
3925.00,99.81
3924.00,99.81
3923.00,99.81
3922.00,99.80
3921.00,99.80
3920.00,99.80
3919.00,99.80
3918.00,99.81
3917.00,99.81
3916.00,99.81
3915.00,99.81
3914.00,99.81
3913.00,99.81
3912.00,99.81
3911.00,99.82
3910.00,99.82
3909.00,99.81
3908.00,99.81
3907.00,99.81
3906.00,99.81
3905.00,99.81
3904.00,99.81
3903.00,99.81
3902.00,99.81
3901.00,99.80
3900.00,99.81
3899.00,99.81
3898.00,99.81
3897.00,99.81
3896.00,99.81
3895.00,99.81
3894.00,99.81
3893.00,99.81
3892.00,99.81
3891.00,99.82
3890.00,99.82
3889.00,99.82
3888.00,99.81
3887.00,99.81
3886.00,99.81
3885.00,99.82
3884.00,99.81
3883.00,99.81
3882.00,99.81
3881.00,99.81
3880.00,99.81
3879.00,99.81
3878.00,99.81
3877.00,99.81
3876.00,99.80
3875.00,99.81
3874.00,99.81
3873.00,99.81
3872.00,99.80
3871.00,99.80
3870.00,99.81
3869.00,99.81
3868.00,99.81
3867.00,99.81
3866.00,99.81
3865.00,99.81
3864.00,99.81
3863.00,99.81
3862.00,99.81
3861.00,99.81
3860.00,99.80
3859.00,99.81
3858.00,99.81
3857.00,99.81
3856.00,99.80
3855.00,99.81
3854.00,99.81
3853.00,99.81
3852.00,99.81
3851.00,99.81
3850.00,99.81
3849.00,99.82
3848.00,99.82
3847.00,99.82
3846.00,99.81
3845.00,99.81
3844.00,99.80
3843.00,99.80
3842.00,99.80
3841.00,99.80
3840.00,99.80
3839.00,99.80
3838.00,99.80
3837.00,99.81
3836.00,99.80
3835.00,99.80
3834.00,99.80
3833.00,99.80
3832.00,99.80
3831.00,99.80
3830.00,99.80
3829.00,99.80
3828.00,99.80
3827.00,99.80
3826.00,99.81
3825.00,99.80
3824.00,99.80
3823.00,99.79
3822.00,99.80
3821.00,99.81
3820.00,99.81
3819.00,99.80
3818.00,99.80
3817.00,99.80
3816.00,99.80
3815.00,99.80
3814.00,99.80
3813.00,99.80
3812.00,99.80
3811.00,99.80
3810.00,99.79
3809.00,99.79
3808.00,99.79
3807.00,99.79
3806.00,99.79
3805.00,99.79
3804.00,99.78
3803.00,99.78
3802.00,99.79
3801.00,99.80
3800.00,99.80
3799.00,99.80
3798.00,99.80
3797.00,99.80
3796.00,99.81
3795.00,99.81
3794.00,99.81
3793.00,99.81
3792.00,99.80
3791.00,99.80
3790.00,99.80
3789.00,99.80
3788.00,99.80
3787.00,99.80
3786.00,99.80
3785.00,99.80
3784.00,99.80
3783.00,99.80
3782.00,99.79
3781.00,99.79
3780.00,99.79
3779.00,99.80
3778.00,99.79
3777.00,99.79
3776.00,99.79
3775.00,99.79
3774.00,99.79
3773.00,99.79
3772.00,99.79
3771.00,99.79
3770.00,99.79
3769.00,99.78
3768.00,99.78
3767.00,99.78
3766.00,99.78
3765.00,99.78
3764.00,99.78
3763.00,99.78
3762.00,99.77
3761.00,99.77
3760.00,99.76
3759.00,99.76
3758.00,99.76
3757.00,99.76
3756.00,99.76
3755.00,99.76
3754.00,99.75
3753.00,99.75
3752.00,99.75
3751.00,99.75
3750.00,99.76
3749.00,99.77
3748.00,99.77
3747.00,99.77
3746.00,99.78
3745.00,99.79
3744.00,99.80
3743.00,99.80
3742.00,99.79
3741.00,99.79
3740.00,99.79
3739.00,99.78
3738.00,99.78
3737.00,99.78
3736.00,99.78
3735.00,99.78
3734.00,99.78
3733.00,99.78
3732.00,99.78
3731.00,99.78
3730.00,99.78
3729.00,99.78
3728.00,99.78
3727.00,99.79
3726.00,99.79
3725.00,99.79
3724.00,99.79
3723.00,99.80
3722.00,99.80
3721.00,99.80
3720.00,99.80
3719.00,99.79
3718.00,99.79
3717.00,99.78
3716.00,99.78
3715.00,99.78
3714.00,99.78
3713.00,99.78
3712.00,99.79
3711.00,99.79
3710.00,99.78
3709.00,99.78
3708.00,99.78
3707.00,99.78
3706.00,99.78
3705.00,99.78
3704.00,99.78
3703.00,99.77
3702.00,99.76
3701.00,99.75
3700.00,99.74
3699.00,99.73
3698.00,99.73
3697.00,99.73
3696.00,99.72
3695.00,99.71
3694.00,99.70
3693.00,99.69
3692.00,99.68
3691.00,99.67
3690.00,99.65
3689.00,99.63
3688.00,99.62
3687.00,99.61
3686.00,99.60
3685.00,99.59
3684.00,99.59
3683.00,99.58
3682.00,99.57
3681.00,99.56
3680.00,99.56
3679.00,99.55
3678.00,99.54
3677.00,99.53
3676.00,99.53
3675.00,99.53
3674.00,99.52
3673.00,99.51
3672.00,99.50
3671.00,99.49
3670.00,99.48
3669.00,99.48
3668.00,99.46
3667.00,99.45
3666.00,99.45
3665.00,99.44
3664.00,99.43
3663.00,99.41
3662.00,99.40
3661.00,99.39
3660.00,99.38
3659.00,99.37
3658.00,99.36
3657.00,99.34
3656.00,99.33
3655.00,99.32
3654.00,99.31
3653.00,99.29
3652.00,99.28
3651.00,99.28
3650.00,99.27
3649.00,99.25
3648.00,99.24
3647.00,99.23
3646.00,99.22
3645.00,99.22
3644.00,99.21
3643.00,99.20
3642.00,99.20
3641.00,99.19
3640.00,99.19
3639.00,99.18
3638.00,99.18
3637.00,99.17
3636.00,99.16
3635.00,99.16
3634.00,99.15
3633.00,99.15
3632.00,99.14
3631.00,99.14
3630.00,99.14
3629.00,99.14
3628.00,99.15
3627.00,99.15
3626.00,99.15
3625.00,99.16
3624.00,99.17
3623.00,99.17
3622.00,99.18
3621.00,99.18
3620.00,99.18
3619.00,99.19
3618.00,99.20
3617.00,99.21
3616.00,99.21
3615.00,99.22
3614.00,99.23
3613.00,99.24
3612.00,99.25
3611.00,99.25
3610.00,99.26
3609.00,99.27
3608.00,99.28
3607.00,99.29
3606.00,99.29
3605.00,99.30
3604.00,99.31
3603.00,99.31
3602.00,99.31
3601.00,99.31
3600.00,99.31
3599.00,99.32
3598.00,99.32
3597.00,99.33
3596.00,99.33
3595.00,99.33
3594.00,99.34
3593.00,99.34
3592.00,99.34
3591.00,99.33
3590.00,99.33
3589.00,99.32
3588.00,99.31
3587.00,99.31
3586.00,99.30
3585.00,99.30
3584.00,99.30
3583.00,99.30
3582.00,99.29
3581.00,99.29
3580.00,99.28
3579.00,99.27
3578.00,99.26
3577.00,99.24
3576.00,99.23
3575.00,99.22
3574.00,99.20
3573.00,99.19
3572.00,99.18
3571.00,99.17
3570.00,99.16
3569.00,99.14
3568.00,99.13
3567.00,99.11
3566.00,99.10
3565.00,99.09
3564.00,99.07
3563.00,99.06
3562.00,99.05
3561.00,99.03
3560.00,99.03
3559.00,99.02
3558.00,99.01
3557.00,99.01
3556.00,99.01
3555.00,99.01
3554.00,99.01
3553.00,99.00
3552.00,99.00
3551.00,99.00
3550.00,99.00
3549.00,99.00
3548.00,99.00
3547.00,99.00
3546.00,99.01
3545.00,99.01
3544.00,99.02
3543.00,99.02
3542.00,99.03
3541.00,99.04
3540.00,99.04
3539.00,99.05
3538.00,99.05
3537.00,99.06
3536.00,99.07
3535.00,99.07
3534.00,99.08
3533.00,99.09
3532.00,99.10
3531.00,99.11
3530.00,99.12
3529.00,99.12
3528.00,99.13
3527.00,99.14
3526.00,99.15
3525.00,99.16
3524.00,99.17
3523.00,99.18
3522.00,99.19
3521.00,99.20
3520.00,99.21
3519.00,99.22
3518.00,99.23
3517.00,99.24
3516.00,99.25
3515.00,99.25
3514.00,99.26
3513.00,99.26
3512.00,99.27
3511.00,99.27
3510.00,99.28
3509.00,99.29
3508.00,99.29
3507.00,99.30
3506.00,99.30
3505.00,99.31
3504.00,99.32
3503.00,99.32
3502.00,99.33
3501.00,99.33
3500.00,99.33
3499.00,99.33
3498.00,99.34
3497.00,99.34
3496.00,99.35
3495.00,99.35
3494.00,99.35
3493.00,99.35
3492.00,99.36
3491.00,99.36
3490.00,99.37
3489.00,99.37
3488.00,99.37
3487.00,99.37
3486.00,99.36
3485.00,99.36
3484.00,99.36
3483.00,99.36
3482.00,99.36
3481.00,99.36
3480.00,99.36
3479.00,99.35
3478.00,99.35
3477.00,99.34
3476.00,99.33
3475.00,99.33
3474.00,99.33
3473.00,99.33
3472.00,99.33
3471.00,99.34
3470.00,99.34
3469.00,99.33
3468.00,99.32
3467.00,99.30
3466.00,99.28
3465.00,99.26
3464.00,99.25
3463.00,99.24
3462.00,99.22
3461.00,99.21
3460.00,99.20
3459.00,99.18
3458.00,99.15
3457.00,99.13
3456.00,99.10
3455.00,99.08
3454.00,99.06
3453.00,99.03
3452.00,99.01
3451.00,98.99
3450.00,98.97
3449.00,98.95
3448.00,98.92
3447.00,98.90
3446.00,98.87
3445.00,98.84
3444.00,98.81
3443.00,98.79
3442.00,98.77
3441.00,98.76
3440.00,98.76
3439.00,98.76
3438.00,98.76
3437.00,98.75
3436.00,98.73
3435.00,98.71
3434.00,98.70
3433.00,98.68
3432.00,98.68
3431.00,98.68
3430.00,98.68
3429.00,98.67
3428.00,98.67
3427.00,98.67
3426.00,98.67
3425.00,98.69
3424.00,98.71
3423.00,98.74
3422.00,98.77
3421.00,98.79
3420.00,98.82
3419.00,98.85
3418.00,98.88
3417.00,98.92
3416.00,98.96
3415.00,99.01
3414.00,99.05
3413.00,99.08
3412.00,99.11
3411.00,99.13
3410.00,99.16
3409.00,99.18
3408.00,99.20
3407.00,99.22
3406.00,99.24
3405.00,99.28
3404.00,99.31
3403.00,99.35
3402.00,99.37
3401.00,99.39
3400.00,99.39
3399.00,99.40
3398.00,99.40
3397.00,99.41
3396.00,99.42
3395.00,99.44
3394.00,99.45
3393.00,99.46
3392.00,99.47
3391.00,99.47
3390.00,99.47
3389.00,99.46
3388.00,99.46
3387.00,99.46
3386.00,99.46
3385.00,99.46
3384.00,99.47
3383.00,99.48
3382.00,99.49
3381.00,99.50
3380.00,99.50
3379.00,99.51
3378.00,99.51
3377.00,99.52
3376.00,99.52
3375.00,99.52
3374.00,99.52
3373.00,99.53
3372.00,99.53
3371.00,99.54
3370.00,99.55
3369.00,99.55
3368.00,99.55
3367.00,99.54
3366.00,99.54
3365.00,99.54
3364.00,99.54
3363.00,99.54
3362.00,99.54
3361.00,99.54
3360.00,99.53
3359.00,99.52
3358.00,99.52
3357.00,99.51
3356.00,99.51
3355.00,99.51
3354.00,99.51
3353.00,99.52
3352.00,99.52
3351.00,99.52
3350.00,99.51
3349.00,99.50
3348.00,99.50
3347.00,99.49
3346.00,99.49
3345.00,99.49
3344.00,99.48
3343.00,99.48
3342.00,99.48
3341.00,99.48
3340.00,99.49
3339.00,99.49
3338.00,99.48
3337.00,99.48
3336.00,99.47
3335.00,99.47
3334.00,99.47
3333.00,99.47
3332.00,99.48
3331.00,99.49
3330.00,99.49
3329.00,99.50
3328.00,99.51
3327.00,99.51
3326.00,99.52
3325.00,99.52
3324.00,99.53
3323.00,99.53
3322.00,99.54
3321.00,99.54
3320.00,99.55
3319.00,99.55
3318.00,99.55
3317.00,99.55
3316.00,99.56
3315.00,99.56
3314.00,99.56
3313.00,99.57
3312.00,99.57
3311.00,99.57
3310.00,99.57
3309.00,99.57
3308.00,99.57
3307.00,99.57
3306.00,99.56
3305.00,99.56
3304.00,99.56
3303.00,99.56
3302.00,99.55
3301.00,99.55
3300.00,99.55
3299.00,99.54
3298.00,99.54
3297.00,99.54
3296.00,99.55
3295.00,99.55
3294.00,99.56
3293.00,99.56
3292.00,99.56
3291.00,99.56
3290.00,99.56
3289.00,99.57
3288.00,99.57
3287.00,99.57
3286.00,99.57
3285.00,99.57
3284.00,99.58
3283.00,99.58
3282.00,99.58
3281.00,99.59
3280.00,99.59
3279.00,99.59
3278.00,99.60
3277.00,99.60
3276.00,99.60
3275.00,99.60
3274.00,99.60
3273.00,99.60
3272.00,99.60
3271.00,99.61
3270.00,99.61
3269.00,99.61
3268.00,99.61
3267.00,99.60
3266.00,99.60
3265.00,99.60
3264.00,99.59
3263.00,99.59
3262.00,99.59
3261.00,99.59
3260.00,99.60
3259.00,99.60
3258.00,99.60
3257.00,99.60
3256.00,99.59
3255.00,99.59
3254.00,99.59
3253.00,99.59
3252.00,99.59
3251.00,99.59
3250.00,99.59
3249.00,99.59
3248.00,99.59
3247.00,99.59
3246.00,99.58
3245.00,99.58
3244.00,99.58
3243.00,99.58
3242.00,99.57
3241.00,99.57
3240.00,99.57
3239.00,99.56
3238.00,99.56
3237.00,99.56
3236.00,99.56
3235.00,99.56
3234.00,99.56
3233.00,99.56
3232.00,99.56
3231.00,99.56
3230.00,99.56
3229.00,99.55
3228.00,99.55
3227.00,99.55
3226.00,99.55
3225.00,99.55
3224.00,99.55
3223.00,99.55
3222.00,99.55
3221.00,99.55
3220.00,99.55
3219.00,99.55
3218.00,99.56
3217.00,99.56
3216.00,99.57
3215.00,99.57
3214.00,99.57
3213.00,99.57
3212.00,99.57
3211.00,99.57
3210.00,99.57
3209.00,99.57
3208.00,99.57
3207.00,99.57
3206.00,99.56
3205.00,99.56
3204.00,99.56
3203.00,99.56
3202.00,99.56
3201.00,99.56
3200.00,99.56
3199.00,99.56
3198.00,99.56
3197.00,99.56
3196.00,99.56
3195.00,99.55
3194.00,99.55
3193.00,99.55
3192.00,99.54
3191.00,99.54
3190.00,99.54
3189.00,99.55
3188.00,99.54
3187.00,99.54
3186.00,99.54
3185.00,99.54
3184.00,99.53
3183.00,99.53
3182.00,99.52
3181.00,99.52
3180.00,99.53
3179.00,99.53
3178.00,99.53
3177.00,99.52
3176.00,99.52
3175.00,99.51
3174.00,99.51
3173.00,99.51
3172.00,99.51
3171.00,99.51
3170.00,99.51
3169.00,99.51
3168.00,99.50
3167.00,99.50
3166.00,99.50
3165.00,99.49
3164.00,99.49
3163.00,99.48
3162.00,99.48
3161.00,99.47
3160.00,99.47
3159.00,99.46
3158.00,99.46
3157.00,99.46
3156.00,99.46
3155.00,99.46
3154.00,99.46
3153.00,99.46
3152.00,99.45
3151.00,99.45
3150.00,99.44
3149.00,99.44
3148.00,99.43
3147.00,99.42
3146.00,99.42
3145.00,99.42
3144.00,99.41
3143.00,99.40
3142.00,99.40
3141.00,99.39
3140.00,99.38
3139.00,99.36
3138.00,99.35
3137.00,99.33
3136.00,99.32
3135.00,99.31
3134.00,99.29
3133.00,99.27
3132.00,99.26
3131.00,99.24
3130.00,99.22
3129.00,99.21
3128.00,99.21
3127.00,99.21
3126.00,99.22
3125.00,99.22
3124.00,99.23
3123.00,99.23
3122.00,99.23
3121.00,99.23
3120.00,99.23
3119.00,99.23
3118.00,99.22
3117.00,99.21
3116.00,99.19
3115.00,99.17
3114.00,99.14
3113.00,99.12
3112.00,99.09
3111.00,99.06
3110.00,99.03
3109.00,99.00
3108.00,98.97
3107.00,98.95
3106.00,98.92
3105.00,98.90
3104.00,98.89
3103.00,98.89
3102.00,98.89
3101.00,98.90
3100.00,98.91
3099.00,98.93
3098.00,98.95
3097.00,98.97
3096.00,98.98
3095.00,98.98
3094.00,98.97
3093.00,98.96
3092.00,98.95
3091.00,98.92
3090.00,98.89
3089.00,98.85
3088.00,98.81
3087.00,98.77
3086.00,98.73
3085.00,98.70
3084.00,98.67
3083.00,98.64
3082.00,98.62
3081.00,98.61
3080.00,98.61
3079.00,98.61
3078.00,98.62
3077.00,98.62
3076.00,98.63
3075.00,98.63
3074.00,98.62
3073.00,98.61
3072.00,98.60
3071.00,98.59
3070.00,98.57
3069.00,98.56
3068.00,98.55
3067.00,98.55
3066.00,98.56
3065.00,98.57
3064.00,98.58
3063.00,98.60
3062.00,98.61
3061.00,98.61
3060.00,98.61
3059.00,98.59
3058.00,98.57
3057.00,98.55
3056.00,98.53
3055.00,98.52
3054.00,98.53
3053.00,98.55
3052.00,98.60
3051.00,98.66
3050.00,98.73
3049.00,98.81
3048.00,98.89
3047.00,98.96
3046.00,99.02
3045.00,99.08
3044.00,99.12
3043.00,99.15
3042.00,99.17
3041.00,99.19
3040.00,99.20
3039.00,99.21
3038.00,99.21
3037.00,99.21
3036.00,99.20
3035.00,99.19
3034.00,99.18
3033.00,99.17
3032.00,99.16
3031.00,99.15
3030.00,99.13
3029.00,99.11
3028.00,99.09
3027.00,99.07
3026.00,99.05
3025.00,99.02
3024.00,99.00
3023.00,98.96
3022.00,98.93
3021.00,98.90
3020.00,98.86
3019.00,98.83
3018.00,98.79
3017.00,98.75
3016.00,98.71
3015.00,98.67
3014.00,98.62
3013.00,98.58
3012.00,98.53
3011.00,98.48
3010.00,98.42
3009.00,98.36
3008.00,98.31
3007.00,98.25
3006.00,98.20
3005.00,98.14
3004.00,98.09
3003.00,98.03
3002.00,97.98
3001.00,97.92
3000.00,97.87
2999.00,97.81
2998.00,97.75
2997.00,97.68
2996.00,97.62
2995.00,97.55
2994.00,97.47
2993.00,97.39
2992.00,97.31
2991.00,97.22
2990.00,97.12
2989.00,97.02
2988.00,96.92
2987.00,96.81
2986.00,96.69
2985.00,96.57
2984.00,96.45
2983.00,96.32
2982.00,96.19
2981.00,96.06
2980.00,95.91
2979.00,95.77
2978.00,95.62
2977.00,95.46
2976.00,95.30
2975.00,95.14
2974.00,94.97
2973.00,94.79
2972.00,94.61
2971.00,94.42
2970.00,94.23
2969.00,94.04
2968.00,93.85
2967.00,93.64
2966.00,93.44
2965.00,93.24
2964.00,93.04
2963.00,92.84
2962.00,92.65
2961.00,92.46
2960.00,92.28
2959.00,92.10
2958.00,91.92
2957.00,91.75
2956.00,91.58
2955.00,91.42
2954.00,91.27
2953.00,91.12
2952.00,90.97
2951.00,90.83
2950.00,90.69
2949.00,90.56
2948.00,90.43
2947.00,90.30
2946.00,90.19
2945.00,90.08
2944.00,89.98
2943.00,89.88
2942.00,89.80
2941.00,89.72
2940.00,89.65
2939.00,89.59
2938.00,89.52
2937.00,89.46
2936.00,89.40
2935.00,89.35
2934.00,89.30
2933.00,89.26
2932.00,89.22
2931.00,89.19
2930.00,89.18
2929.00,89.17
2928.00,89.18
2927.00,89.21
2926.00,89.25
2925.00,89.31
2924.00,89.39
2923.00,89.50
2922.00,89.63
2921.00,89.79
2920.00,89.98
2919.00,90.19
2918.00,90.43
2917.00,90.68
2916.00,90.95
2915.00,91.22
2914.00,91.49
2913.00,91.74
2912.00,91.98
2911.00,92.21
2910.00,92.41
2909.00,92.59
2908.00,92.76
2907.00,92.91
2906.00,93.04
2905.00,93.15
2904.00,93.25
2903.00,93.33
2902.00,93.39
2901.00,93.43
2900.00,93.45
2899.00,93.47
2898.00,93.48
2897.00,93.49
2896.00,93.51
2895.00,93.53
2894.00,93.58
2893.00,93.64
2892.00,93.72
2891.00,93.82
2890.00,93.93
2889.00,94.06
2888.00,94.20
2887.00,94.35
2886.00,94.51
2885.00,94.67
2884.00,94.83
2883.00,94.98
2882.00,95.12
2881.00,95.24
2880.00,95.33
2879.00,95.40
2878.00,95.45
2877.00,95.47
2876.00,95.47
2875.00,95.45
2874.00,95.41
2873.00,95.36
2872.00,95.29
2871.00,95.21
2870.00,95.12
2869.00,95.02
2868.00,94.91
2867.00,94.77
2866.00,94.62
2865.00,94.46
2864.00,94.28
2863.00,94.10
2862.00,93.91
2861.00,93.73
2860.00,93.56
2859.00,93.42
2858.00,93.31
2857.00,93.23
2856.00,93.21
2855.00,93.23
2854.00,93.30
2853.00,93.42
2852.00,93.59
2851.00,93.82
2850.00,94.11
2849.00,94.44
2848.00,94.81
2847.00,95.20
2846.00,95.59
2845.00,95.97
2844.00,96.32
2843.00,96.64
2842.00,96.94
2841.00,97.19
2840.00,97.42
2839.00,97.61
2838.00,97.78
2837.00,97.92
2836.00,98.05
2835.00,98.16
2834.00,98.26
2833.00,98.34
2832.00,98.41
2831.00,98.47
2830.00,98.53
2829.00,98.58
2828.00,98.63
2827.00,98.67
2826.00,98.71
2825.00,98.74
2824.00,98.78
2823.00,98.80
2822.00,98.83
2821.00,98.86
2820.00,98.88
2819.00,98.89
2818.00,98.91
2817.00,98.93
2816.00,98.94
2815.00,98.96
2814.00,98.97
2813.00,98.98
2812.00,98.99
2811.00,99.00
2810.00,99.01
2809.00,99.02
2808.00,99.03
2807.00,99.04
2806.00,99.05
2805.00,99.07
2804.00,99.08
2803.00,99.09
2802.00,99.11
2801.00,99.12
2800.00,99.14
2799.00,99.15
2798.00,99.17
2797.00,99.18
2796.00,99.19
2795.00,99.20
2794.00,99.21
2793.00,99.22
2792.00,99.24
2791.00,99.25
2790.00,99.26
2789.00,99.27
2788.00,99.28
2787.00,99.29
2786.00,99.30
2785.00,99.30
2784.00,99.31
2783.00,99.31
2782.00,99.31
2781.00,99.32
2780.00,99.32
2779.00,99.32
2778.00,99.33
2777.00,99.33
2776.00,99.34
2775.00,99.34
2774.00,99.34
2773.00,99.34
2772.00,99.34
2771.00,99.34
2770.00,99.34
2769.00,99.34
2768.00,99.35
2767.00,99.35
2766.00,99.35
2765.00,99.34
2764.00,99.34
2763.00,99.34
2762.00,99.33
2761.00,99.33
2760.00,99.33
2759.00,99.34
2758.00,99.34
2757.00,99.34
2756.00,99.34
2755.00,99.34
2754.00,99.35
2753.00,99.35
2752.00,99.36
2751.00,99.36
2750.00,99.37
2749.00,99.38
2748.00,99.39
2747.00,99.39
2746.00,99.40
2745.00,99.40
2744.00,99.41
2743.00,99.41
2742.00,99.42
2741.00,99.42
2740.00,99.43
2739.00,99.43
2738.00,99.43
2737.00,99.44
2736.00,99.44
2735.00,99.44
2734.00,99.45
2733.00,99.45
2732.00,99.45
2731.00,99.46
2730.00,99.47
2729.00,99.47
2728.00,99.48
2727.00,99.48
2726.00,99.49
2725.00,99.49
2724.00,99.50
2723.00,99.50
2722.00,99.51
2721.00,99.51
2720.00,99.51
2719.00,99.52
2718.00,99.52
2717.00,99.52
2716.00,99.52
2715.00,99.52
2714.00,99.52
2713.00,99.52
2712.00,99.52
2711.00,99.52
2710.00,99.53
2709.00,99.53
2708.00,99.53
2707.00,99.53
2706.00,99.54
2705.00,99.54
2704.00,99.54
2703.00,99.54
2702.00,99.55
2701.00,99.55
2700.00,99.55
2699.00,99.56
2698.00,99.56
2697.00,99.56
2696.00,99.56
2695.00,99.55
2694.00,99.55
2693.00,99.55
2692.00,99.55
2691.00,99.55
2690.00,99.55
2689.00,99.55
2688.00,99.55
2687.00,99.54
2686.00,99.54
2685.00,99.54
2684.00,99.54
2683.00,99.53
2682.00,99.53
2681.00,99.53
2680.00,99.53
2679.00,99.53
2678.00,99.53
2677.00,99.53
2676.00,99.53
2675.00,99.53
2674.00,99.53
2673.00,99.53
2672.00,99.53
2671.00,99.53
2670.00,99.53
2669.00,99.53
2668.00,99.53
2667.00,99.53
2666.00,99.53
2665.00,99.52
2664.00,99.52
2663.00,99.51
2662.00,99.51
2661.00,99.50
2660.00,99.50
2659.00,99.50
2658.00,99.50
2657.00,99.50
2656.00,99.50
2655.00,99.50
2654.00,99.50
2653.00,99.50
2652.00,99.51
2651.00,99.51
2650.00,99.51
2649.00,99.51
2648.00,99.51
2647.00,99.51
2646.00,99.50
2645.00,99.50
2644.00,99.49
2643.00,99.48
2642.00,99.48
2641.00,99.47
2640.00,99.47
2639.00,99.46
2638.00,99.45
2637.00,99.44
2636.00,99.43
2635.00,99.42
2634.00,99.41
2633.00,99.41
2632.00,99.40
2631.00,99.40
2630.00,99.39
2629.00,99.39
2628.00,99.39
2627.00,99.39
2626.00,99.39
2625.00,99.40
2624.00,99.40
2623.00,99.40
2622.00,99.41
2621.00,99.41
2620.00,99.41
2619.00,99.41
2618.00,99.41
2617.00,99.41
2616.00,99.41
2615.00,99.42
2614.00,99.42
2613.00,99.42
2612.00,99.43
2611.00,99.43
2610.00,99.43
2609.00,99.43
2608.00,99.43
2607.00,99.43
2606.00,99.43
2605.00,99.43
2604.00,99.44
2603.00,99.44
2602.00,99.44
2601.00,99.44
2600.00,99.44
2599.00,99.43
2598.00,99.43
2597.00,99.43
2596.00,99.43
2595.00,99.43
2594.00,99.42
2593.00,99.42
2592.00,99.42
2591.00,99.41
2590.00,99.40
2589.00,99.40
2588.00,99.39
2587.00,99.38
2586.00,99.38
2585.00,99.37
2584.00,99.37
2583.00,99.36
2582.00,99.37
2581.00,99.37
2580.00,99.36
2579.00,99.36
2578.00,99.36
2577.00,99.36
2576.00,99.36
2575.00,99.36
2574.00,99.36
2573.00,99.37
2572.00,99.37
2571.00,99.37
2570.00,99.38
2569.00,99.38
2568.00,99.38
2567.00,99.37
2566.00,99.38
2565.00,99.38
2564.00,99.39
2563.00,99.39
2562.00,99.39
2561.00,99.38
2560.00,99.38
2559.00,99.38
2558.00,99.38
2557.00,99.38
2556.00,99.38
2555.00,99.38
2554.00,99.38
2553.00,99.38
2552.00,99.38
2551.00,99.37
2550.00,99.37
2549.00,99.37
2548.00,99.37
2547.00,99.38
2546.00,99.38
2545.00,99.38
2544.00,99.38
2543.00,99.38
2542.00,99.38
2541.00,99.38
2540.00,99.38
2539.00,99.37
2538.00,99.37
2537.00,99.37
2536.00,99.37
2535.00,99.37
2534.00,99.37
2533.00,99.37
2532.00,99.36
2531.00,99.36
2530.00,99.37
2529.00,99.37
2528.00,99.38
2527.00,99.38
2526.00,99.38
2525.00,99.38
2524.00,99.38
2523.00,99.39
2522.00,99.39
2521.00,99.40
2520.00,99.41
2519.00,99.42
2518.00,99.42
2517.00,99.42
2516.00,99.43
2515.00,99.43
2514.00,99.43
2513.00,99.44
2512.00,99.45
2511.00,99.45
2510.00,99.46
2509.00,99.46
2508.00,99.46
2507.00,99.47
2506.00,99.47
2505.00,99.48
2504.00,99.48
2503.00,99.49
2502.00,99.49
2501.00,99.49
2500.00,99.50
2499.00,99.50
2498.00,99.51
2497.00,99.51
2496.00,99.52
2495.00,99.52
2494.00,99.53
2493.00,99.54
2492.00,99.54
2491.00,99.54
2490.00,99.55
2489.00,99.55
2488.00,99.56
2487.00,99.57
2486.00,99.57
2485.00,99.57
2484.00,99.57
2483.00,99.58
2482.00,99.58
2481.00,99.59
2480.00,99.59
2479.00,99.59
2478.00,99.59
2477.00,99.60
2476.00,99.60
2475.00,99.60
2474.00,99.60
2473.00,99.60
2472.00,99.61
2471.00,99.61
2470.00,99.61
2469.00,99.61
2468.00,99.62
2467.00,99.62
2466.00,99.62
2465.00,99.62
2464.00,99.61
2463.00,99.61
2462.00,99.61
2461.00,99.61
2460.00,99.61
2459.00,99.60
2458.00,99.60
2457.00,99.60
2456.00,99.59
2455.00,99.58
2454.00,99.58
2453.00,99.58
2452.00,99.59
2451.00,99.59
2450.00,99.59
2449.00,99.59
2448.00,99.59
2447.00,99.59
2446.00,99.59
2445.00,99.58
2444.00,99.58
2443.00,99.58
2442.00,99.58
2441.00,99.58
2440.00,99.58
2439.00,99.57
2438.00,99.57
2437.00,99.56
2436.00,99.55
2435.00,99.55
2434.00,99.54
2433.00,99.54
2432.00,99.54
2431.00,99.53
2430.00,99.53
2429.00,99.52
2428.00,99.51
2427.00,99.50
2426.00,99.49
2425.00,99.49
2424.00,99.48
2423.00,99.47
2422.00,99.46
2421.00,99.45
2420.00,99.44
2419.00,99.43
2418.00,99.42
2417.00,99.42
2416.00,99.42
2415.00,99.41
2414.00,99.41
2413.00,99.39
2412.00,99.38
2411.00,99.37
2410.00,99.36
2409.00,99.36
2408.00,99.35
2407.00,99.35
2406.00,99.35
2405.00,99.35
2404.00,99.35
2403.00,99.34
2402.00,99.33
2401.00,99.32
2400.00,99.30
2399.00,99.29
2398.00,99.28
2397.00,99.27
2396.00,99.27
2395.00,99.26
2394.00,99.26
2393.00,99.25
2392.00,99.25
2391.00,99.25
2390.00,99.25
2389.00,99.25
2388.00,99.25
2387.00,99.26
2386.00,99.27
2385.00,99.29
2384.00,99.31
2383.00,99.33
2382.00,99.35
2381.00,99.37
2380.00,99.38
2379.00,99.40
2378.00,99.40
2377.00,99.41
2376.00,99.41
2375.00,99.42
2374.00,99.42
2373.00,99.43
2372.00,99.44
2371.00,99.45
2370.00,99.45
2369.00,99.45
2368.00,99.45
2367.00,99.46
2366.00,99.48
2365.00,99.50
2364.00,99.51
2363.00,99.52
2362.00,99.52
2361.00,99.51
2360.00,99.51
2359.00,99.51
2358.00,99.52
2357.00,99.53
2356.00,99.54
2355.00,99.54
2354.00,99.55
2353.00,99.55
2352.00,99.56
2351.00,99.56
2350.00,99.57
2349.00,99.57
2348.00,99.58
2347.00,99.58
2346.00,99.58
2345.00,99.58
2344.00,99.58
2343.00,99.57
2342.00,99.56
2341.00,99.56
2340.00,99.56
2339.00,99.58
2338.00,99.59
2337.00,99.61
2336.00,99.61
2335.00,99.61
2334.00,99.62
2333.00,99.63
2332.00,99.63
2331.00,99.64
2330.00,99.63
2329.00,99.62
2328.00,99.61
2327.00,99.58
2326.00,99.54
2325.00,99.50
2324.00,99.47
2323.00,99.46
2322.00,99.47
2321.00,99.50
2320.00,99.52
2319.00,99.53
2318.00,99.54
2317.00,99.54
2316.00,99.55
2315.00,99.56
2314.00,99.57
2313.00,99.57
2312.00,99.57
2311.00,99.56
2310.00,99.55
2309.00,99.54
2308.00,99.54
2307.00,99.53
2306.00,99.53
2305.00,99.52
2304.00,99.51
2303.00,99.49
2302.00,99.47
2301.00,99.45
2300.00,99.44
2299.00,99.42
2298.00,99.40
2297.00,99.38
2296.00,99.36
2295.00,99.34
2294.00,99.32
2293.00,99.30
2292.00,99.27
2291.00,99.24
2290.00,99.22
2289.00,99.19
2288.00,99.18
2287.00,99.16
2286.00,99.15
2285.00,99.14
2284.00,99.14
2283.00,99.15
2282.00,99.16
2281.00,99.18
2280.00,99.19
2279.00,99.21
2278.00,99.22
2277.00,99.23
2276.00,99.25
2275.00,99.26
2274.00,99.29
2273.00,99.31
2272.00,99.33
2271.00,99.34
2270.00,99.34
2269.00,99.34
2268.00,99.34
2267.00,99.34
2266.00,99.35
2265.00,99.37
2264.00,99.38
2263.00,99.39
2262.00,99.38
2261.00,99.36
2260.00,99.35
2259.00,99.35
2258.00,99.34
2257.00,99.34
2256.00,99.35
2255.00,99.36
2254.00,99.38
2253.00,99.38
2252.00,99.37
2251.00,99.36
2250.00,99.36
2249.00,99.36
2248.00,99.37
2247.00,99.37
2246.00,99.36
2245.00,99.36
2244.00,99.35
2243.00,99.34
2242.00,99.34
2241.00,99.34
2240.00,99.34
2239.00,99.34
2238.00,99.34
2237.00,99.34
2236.00,99.33
2235.00,99.32
2234.00,99.32
2233.00,99.33
2232.00,99.33
2231.00,99.34
2230.00,99.33
2229.00,99.33
2228.00,99.34
2227.00,99.35
2226.00,99.35
2225.00,99.35
2224.00,99.35
2223.00,99.34
2222.00,99.34
2221.00,99.34
2220.00,99.35
2219.00,99.35
2218.00,99.35
2217.00,99.35
2216.00,99.35
2215.00,99.35
2214.00,99.35
2213.00,99.36
2212.00,99.36
2211.00,99.36
2210.00,99.36
2209.00,99.37
2208.00,99.37
2207.00,99.38
2206.00,99.39
2205.00,99.40
2204.00,99.40
2203.00,99.41
2202.00,99.42
2201.00,99.43
2200.00,99.44
2199.00,99.43
2198.00,99.42
2197.00,99.41
2196.00,99.40
2195.00,99.40
2194.00,99.41
2193.00,99.41
2192.00,99.41
2191.00,99.40
2190.00,99.39
2189.00,99.38
2188.00,99.37
2187.00,99.36
2186.00,99.37
2185.00,99.38
2184.00,99.40
2183.00,99.43
2182.00,99.45
2181.00,99.47
2180.00,99.46
2179.00,99.44
2178.00,99.42
2177.00,99.43
2176.00,99.44
2175.00,99.45
2174.00,99.45
2173.00,99.44
2172.00,99.42
2171.00,99.40
2170.00,99.37
2169.00,99.33
2168.00,99.29
2167.00,99.26
2166.00,99.23
2165.00,99.21
2164.00,99.18
2163.00,99.14
2162.00,99.11
2161.00,99.13
2160.00,99.21
2159.00,99.37
2158.00,99.54
2157.00,99.66
2156.00,99.70
2155.00,99.68
2154.00,99.64
2153.00,99.60
2152.00,99.55
2151.00,99.50
2150.00,99.46
2149.00,99.45
2148.00,99.45
2147.00,99.45
2146.00,99.45
2145.00,99.43
2144.00,99.41
2143.00,99.39
2142.00,99.38
2141.00,99.38
2140.00,99.38
2139.00,99.38
2138.00,99.37
2137.00,99.38
2136.00,99.39
2135.00,99.42
2134.00,99.44
2133.00,99.45
2132.00,99.44
2131.00,99.42
2130.00,99.40
2129.00,99.38
2128.00,99.36
2127.00,99.33
2126.00,99.31
2125.00,99.29
2124.00,99.27
2123.00,99.25
2122.00,99.24
2121.00,99.23
2120.00,99.21
2119.00,99.20
2118.00,99.18
2117.00,99.17
2116.00,99.15
2115.00,99.13
2114.00,99.12
2113.00,99.11
2112.00,99.11
2111.00,99.11
2110.00,99.11
2109.00,99.11
2108.00,99.10
2107.00,99.09
2106.00,99.08
2105.00,99.08
2104.00,99.09
2103.00,99.10
2102.00,99.10
2101.00,99.10
2100.00,99.10
2099.00,99.09
2098.00,99.10
2097.00,99.11
2096.00,99.14
2095.00,99.16
2094.00,99.17
2093.00,99.17
2092.00,99.16
2091.00,99.15
2090.00,99.14
2089.00,99.14
2088.00,99.14
2087.00,99.14
2086.00,99.13
2085.00,99.12
2084.00,99.11
2083.00,99.10
2082.00,99.10
2081.00,99.10
2080.00,99.10
2079.00,99.10
2078.00,99.10
2077.00,99.12
2076.00,99.13
2075.00,99.13
2074.00,99.14
2073.00,99.15
2072.00,99.16
2071.00,99.17
2070.00,99.18
2069.00,99.19
2068.00,99.19
2067.00,99.19
2066.00,99.20
2065.00,99.21
2064.00,99.23
2063.00,99.24
2062.00,99.25
2061.00,99.26
2060.00,99.27
2059.00,99.27
2058.00,99.26
2057.00,99.25
2056.00,99.25
2055.00,99.25
2054.00,99.25
2053.00,99.24
2052.00,99.22
2051.00,99.19
2050.00,99.18
2049.00,99.22
2048.00,99.26
2047.00,99.29
2046.00,99.29
2045.00,99.30
2044.00,99.30
2043.00,99.30
2042.00,99.30
2041.00,99.31
2040.00,99.31
2039.00,99.32
2038.00,99.32
2037.00,99.33
2036.00,99.35
2035.00,99.36
2034.00,99.38
2033.00,99.40
2032.00,99.41
2031.00,99.42
2030.00,99.43
2029.00,99.43
2028.00,99.43
2027.00,99.43
2026.00,99.42
2025.00,99.42
2024.00,99.42
2023.00,99.42
2022.00,99.41
2021.00,99.40
2020.00,99.39
2019.00,99.36
2018.00,99.35
2017.00,99.35
2016.00,99.36
2015.00,99.35
2014.00,99.34
2013.00,99.31
2012.00,99.28
2011.00,99.24
2010.00,99.22
2009.00,99.23
2008.00,99.26
2007.00,99.29
2006.00,99.31
2005.00,99.32
2004.00,99.30
2003.00,99.26
2002.00,99.22
2001.00,99.20
2000.00,99.18
1999.00,99.15
1998.00,99.12
1997.00,99.09
1996.00,99.06
1995.00,99.02
1994.00,98.97
1993.00,98.93
1992.00,98.91
1991.00,98.89
1990.00,98.87
1989.00,98.85
1988.00,98.83
1987.00,98.81
1986.00,98.78
1985.00,98.76
1984.00,98.73
1983.00,98.69
1982.00,98.64
1981.00,98.59
1980.00,98.55
1979.00,98.53
1978.00,98.57
1977.00,98.65
1976.00,98.72
1975.00,98.76
1974.00,98.76
1973.00,98.75
1972.00,98.73
1971.00,98.70
1970.00,98.66
1969.00,98.64
1968.00,98.62
1967.00,98.60
1966.00,98.57
1965.00,98.56
1964.00,98.53
1963.00,98.49
1962.00,98.45
1961.00,98.43
1960.00,98.42
1959.00,98.39
1958.00,98.36
1957.00,98.34
1956.00,98.31
1955.00,98.28
1954.00,98.26
1953.00,98.24
1952.00,98.22
1951.00,98.19
1950.00,98.18
1949.00,98.18
1948.00,98.20
1947.00,98.21
1946.00,98.23
1945.00,98.26
1944.00,98.29
1943.00,98.32
1942.00,98.36
1941.00,98.41
1940.00,98.46
1939.00,98.50
1938.00,98.53
1937.00,98.56
1936.00,98.59
1935.00,98.62
1934.00,98.66
1933.00,98.71
1932.00,98.75
1931.00,98.77
1930.00,98.80
1929.00,98.82
1928.00,98.84
1927.00,98.85
1926.00,98.85
1925.00,98.86
1924.00,98.88
1923.00,98.89
1922.00,98.91
1921.00,98.93
1920.00,98.93
1919.00,98.94
1918.00,98.95
1917.00,98.97
1916.00,98.99
1915.00,99.00
1914.00,99.01
1913.00,99.01
1912.00,99.01
1911.00,99.01
1910.00,99.01
1909.00,99.02
1908.00,99.04
1907.00,99.06
1906.00,99.07
1905.00,99.09
1904.00,99.11
1903.00,99.12
1902.00,99.13
1901.00,99.14
1900.00,99.15
1899.00,99.15
1898.00,99.14
1897.00,99.14
1896.00,99.15
1895.00,99.16
1894.00,99.17
1893.00,99.18
1892.00,99.18
1891.00,99.17
1890.00,99.17
1889.00,99.18
1888.00,99.20
1887.00,99.21
1886.00,99.21
1885.00,99.22
1884.00,99.23
1883.00,99.23
1882.00,99.23
1881.00,99.24
1880.00,99.24
1879.00,99.24
1878.00,99.23
1877.00,99.23
1876.00,99.23
1875.00,99.22
1874.00,99.21
1873.00,99.20
1872.00,99.18
1871.00,99.15
1870.00,99.12
1869.00,99.11
1868.00,99.11
1867.00,99.12
1866.00,99.12
1865.00,99.13
1864.00,99.14
1863.00,99.12
1862.00,99.10
1861.00,99.07
1860.00,99.06
1859.00,99.04
1858.00,99.02
1857.00,99.01
1856.00,99.00
1855.00,98.98
1854.00,98.95
1853.00,98.92
1852.00,98.89
1851.00,98.86
1850.00,98.81
1849.00,98.77
1848.00,98.75
1847.00,98.71
1846.00,98.68
1845.00,98.63
1844.00,98.59
1843.00,98.54
1842.00,98.50
1841.00,98.47
1840.00,98.44
1839.00,98.39
1838.00,98.34
1837.00,98.30
1836.00,98.27
1835.00,98.22
1834.00,98.17
1833.00,98.13
1832.00,98.07
1831.00,98.01
1830.00,97.95
1829.00,97.91
1828.00,97.89
1827.00,97.86
1826.00,97.83
1825.00,97.82
1824.00,97.82
1823.00,97.82
1822.00,97.82
1821.00,97.83
1820.00,97.84
1819.00,97.84
1818.00,97.85
1817.00,97.87
1816.00,97.88
1815.00,97.87
1814.00,97.85
1813.00,97.83
1812.00,97.83
1811.00,97.82
1810.00,97.81
1809.00,97.82
1808.00,97.83
1807.00,97.82
1806.00,97.80
1805.00,97.79
1804.00,97.76
1803.00,97.72
1802.00,97.68
1801.00,97.67
1800.00,97.66
1799.00,97.65
1798.00,97.62
1797.00,97.61
1796.00,97.59
1795.00,97.56
1794.00,97.50
1793.00,97.45
1792.00,97.42
1791.00,97.38
1790.00,97.36
1789.00,97.35
1788.00,97.33
1787.00,97.28
1786.00,97.22
1785.00,97.17
1784.00,97.13
1783.00,97.06
1782.00,97.00
1781.00,96.95
1780.00,96.91
1779.00,96.86
1778.00,96.79
1777.00,96.75
1776.00,96.71
1775.00,96.65
1774.00,96.56
1773.00,96.47
1772.00,96.37
1771.00,96.27
1770.00,96.18
1769.00,96.12
1768.00,96.05
1767.00,95.94
1766.00,95.83
1765.00,95.73
1764.00,95.61
1763.00,95.43
1762.00,95.21
1761.00,95.02
1760.00,94.85
1759.00,94.63
1758.00,94.35
1757.00,94.05
1756.00,93.74
1755.00,93.40
1754.00,93.02
1753.00,92.58
1752.00,92.00
1751.00,91.21
1750.00,90.30
1749.00,89.34
1748.00,88.29
1747.00,87.09
1746.00,85.71
1745.00,84.13
1744.00,82.31
1743.00,80.27
1742.00,78.02
1741.00,75.47
1740.00,72.54
1739.00,69.56
1738.00,67.01
1737.00,64.86
1736.00,62.48
1735.00,59.11
1734.00,55.06
1733.00,51.62
1732.00,49.04
1731.00,46.63
1730.00,44.04
1729.00,41.42
1728.00,38.95
1727.00,36.58
1726.00,34.23
1725.00,31.86
1724.00,29.49
1723.00,27.21
1722.00,25.18
1721.00,23.49
1720.00,21.93
1719.00,20.10
1718.00,18.02
1717.00,16.33
1716.00,15.32
1715.00,14.70
1714.00,14.37
1713.00,14.58
1712.00,15.34
1711.00,16.55
1710.00,18.22
1709.00,20.48
1708.00,23.37
1707.00,26.94
1706.00,31.15
1705.00,35.50
1704.00,39.27
1703.00,42.42
1702.00,45.69
1701.00,49.94
1700.00,54.48
1699.00,57.83
1698.00,60.16
1697.00,62.46
1696.00,65.07
1695.00,67.43
1694.00,69.15
1693.00,70.46
1692.00,71.66
1691.00,72.86
1690.00,74.02
1689.00,75.04
1688.00,75.89
1687.00,76.62
1686.00,77.31
1685.00,78.07
1684.00,78.89
1683.00,79.59
1682.00,80.18
1681.00,80.77
1680.00,81.40
1679.00,82.03
1678.00,82.63
1677.00,83.24
1676.00,83.91
1675.00,84.61
1674.00,85.21
1673.00,85.71
1672.00,86.20
1671.00,86.75
1670.00,87.38
1669.00,88.02
1668.00,88.59
1667.00,89.08
1666.00,89.52
1665.00,89.97
1664.00,90.45
1663.00,90.96
1662.00,91.45
1661.00,91.86
1660.00,92.21
1659.00,92.53
1658.00,92.81
1657.00,93.07
1656.00,93.31
1655.00,93.55
1654.00,93.82
1653.00,94.08
1652.00,94.22
1651.00,94.27
1650.00,94.32
1649.00,94.40
1648.00,94.54
1647.00,94.71
1646.00,94.86
1645.00,94.96
1644.00,95.04
1643.00,95.12
1642.00,95.19
1641.00,95.25
1640.00,95.29
1639.00,95.34
1638.00,95.39
1637.00,95.43
1636.00,95.48
1635.00,95.55
1634.00,95.60
1633.00,95.63
1632.00,95.67
1631.00,95.71
1630.00,95.74
1629.00,95.76
1628.00,95.78
1627.00,95.81
1626.00,95.84
1625.00,95.84
1624.00,95.82
1623.00,95.80
1622.00,95.75
1621.00,95.67
1620.00,95.58
1619.00,95.44
1618.00,95.19
1617.00,94.82
1616.00,94.49
1615.00,94.32
1614.00,94.32
1613.00,94.41
1612.00,94.57
1611.00,94.78
1610.00,95.03
1609.00,95.29
1608.00,95.54
1607.00,95.78
1606.00,96.00
1605.00,96.17
1604.00,96.33
1603.00,96.49
1602.00,96.63
1601.00,96.75
1600.00,96.86
1599.00,96.94
1598.00,97.00
1597.00,97.03
1596.00,97.03
1595.00,97.02
1594.00,96.99
1593.00,96.94
1592.00,96.87
1591.00,96.80
1590.00,96.72
1589.00,96.59
1588.00,96.41
1587.00,96.15
1586.00,95.76
1585.00,95.21
1584.00,94.49
1583.00,93.61
1582.00,92.65
1581.00,91.74
1580.00,91.02
1579.00,90.60
1578.00,90.56
1577.00,90.99
1576.00,91.77
1575.00,92.60
1574.00,93.29
1573.00,93.86
1572.00,94.37
1571.00,94.86
1570.00,95.35
1569.00,95.75
1568.00,96.04
1567.00,96.23
1566.00,96.40
1565.00,96.55
1564.00,96.69
1563.00,96.82
1562.00,96.92
1561.00,96.94
1560.00,96.93
1559.00,97.00
1558.00,97.08
1557.00,97.12
1556.00,97.17
1555.00,97.22
1554.00,97.26
1553.00,97.28
1552.00,97.29
1551.00,97.32
1550.00,97.36
1549.00,97.40
1548.00,97.42
1547.00,97.43
1546.00,97.41
1545.00,97.38
1544.00,97.37
1543.00,97.38
1542.00,97.38
1541.00,97.38
1540.00,97.39
1539.00,97.38
1538.00,97.33
1537.00,97.26
1536.00,97.20
1535.00,97.11
1534.00,96.99
1533.00,96.88
1532.00,96.80
1531.00,96.75
1530.00,96.69
1529.00,96.63
1528.00,96.57
1527.00,96.55
1526.00,96.54
1525.00,96.55
1524.00,96.57
1523.00,96.60
1522.00,96.62
1521.00,96.63
1520.00,96.63
1519.00,96.61
1518.00,96.57
1517.00,96.52
1516.00,96.46
1515.00,96.37
1514.00,96.21
1513.00,95.93
1512.00,95.52
1511.00,95.00
1510.00,94.34
1509.00,93.42
1508.00,91.90
1507.00,89.89
1506.00,88.45
1505.00,88.18
1504.00,88.76
1503.00,89.85
1502.00,91.22
1501.00,92.63
1500.00,93.89
1499.00,94.92
1498.00,95.73
1497.00,96.31
1496.00,96.70
1495.00,96.95
1494.00,97.10
1493.00,97.14
1492.00,97.11
1491.00,97.06
1490.00,97.01
1489.00,96.94
1488.00,96.84
1487.00,96.76
1486.00,96.65
1485.00,96.49
1484.00,96.27
1483.00,96.00
1482.00,95.69
1481.00,95.32
1480.00,94.93
1479.00,94.55
1478.00,94.15
1477.00,93.72
1476.00,93.30
1475.00,92.94
1474.00,92.60
1473.00,92.21
1472.00,91.80
1471.00,91.45
1470.00,91.12
1469.00,90.75
1468.00,90.34
1467.00,89.87
1466.00,89.33
1465.00,88.72
1464.00,88.14
1463.00,87.66
1462.00,87.24
1461.00,86.80
1460.00,86.33
1459.00,85.76
1458.00,84.97
1457.00,83.96
1456.00,83.07
1455.00,82.45
1454.00,81.99
1453.00,81.63
1452.00,81.41
1451.00,81.40
1450.00,81.62
1449.00,82.07
1448.00,82.73
1447.00,83.49
1446.00,84.23
1445.00,84.91
1444.00,85.54
1443.00,86.11
1442.00,86.61
1441.00,87.03
1440.00,87.43
1439.00,87.86
1438.00,88.40
1437.00,89.11
1436.00,89.87
1435.00,90.53
1434.00,91.10
1433.00,91.63
1432.00,92.17
1431.00,92.67
1430.00,93.12
1429.00,93.49
1428.00,93.75
1427.00,93.89
1426.00,93.94
1425.00,93.90
1424.00,93.79
1423.00,93.60
1422.00,93.36
1421.00,92.95
1420.00,92.24
1419.00,91.16
1418.00,89.84
1417.00,88.30
1416.00,86.43
1415.00,84.07
1414.00,81.12
1413.00,77.63
1412.00,73.86
1411.00,70.36
1410.00,67.69
1409.00,66.20
1408.00,66.04
1407.00,67.18
1406.00,69.39
1405.00,72.18
1404.00,74.94
1403.00,77.25
1402.00,79.08
1401.00,80.56
1400.00,81.85
1399.00,82.95
1398.00,83.79
1397.00,84.38
1396.00,84.81
1395.00,85.16
1394.00,85.44
1393.00,85.64
1392.00,85.80
1391.00,85.95
1390.00,86.10
1389.00,86.26
1388.00,86.44
1387.00,86.64
1386.00,86.83
1385.00,86.95
1384.00,87.00
1383.00,86.95
1382.00,86.78
1381.00,86.48
1380.00,86.06
1379.00,85.55
1378.00,85.00
1377.00,84.43
1376.00,83.88
1375.00,83.35
1374.00,82.92
1373.00,82.63
1372.00,82.51
1371.00,82.58
1370.00,82.86
1369.00,83.40
1368.00,84.18
1367.00,85.14
1366.00,86.20
1365.00,87.31
1364.00,88.45
1363.00,89.55
1362.00,90.48
1361.00,91.15
1360.00,91.61
1359.00,91.92
1358.00,92.15
1357.00,92.31
1356.00,92.41
1355.00,92.46
1354.00,92.48
1353.00,92.45
1352.00,92.37
1351.00,92.23
1350.00,92.04
1349.00,91.77
1348.00,91.44
1347.00,91.04
1346.00,90.57
1345.00,90.04
1344.00,89.48
1343.00,88.92
1342.00,88.40
1341.00,87.96
1340.00,87.66
1339.00,87.58
1338.00,87.75
1337.00,88.13
1336.00,88.65
1335.00,89.23
1334.00,89.79
1333.00,90.25
1332.00,90.57
1331.00,90.72
1330.00,90.72
1329.00,90.58
1328.00,90.30
1327.00,89.93
1326.00,89.47
1325.00,88.95
1324.00,88.37
1323.00,87.76
1322.00,87.15
1321.00,86.53
1320.00,85.91
1319.00,85.30
1318.00,84.72
1317.00,84.16
1316.00,83.63
1315.00,83.13
1314.00,82.64
1313.00,82.12
1312.00,81.56
1311.00,80.94
1310.00,80.25
1309.00,79.48
1308.00,78.66
1307.00,77.81
1306.00,76.98
1305.00,76.14
1304.00,75.28
1303.00,74.38
1302.00,73.38
1301.00,72.23
1300.00,70.89
1299.00,69.39
1298.00,67.76
1297.00,66.04
1296.00,64.29
1295.00,62.57
1294.00,60.95
1293.00,59.41
1292.00,57.95
1291.00,56.60
1290.00,55.33
1289.00,54.10
1288.00,52.86
1287.00,51.64
1286.00,50.43
1285.00,49.18
1284.00,47.89
1283.00,46.60
1282.00,45.31
1281.00,44.01
1280.00,42.69
1279.00,41.40
1278.00,40.15
1277.00,38.91
1276.00,37.67
1275.00,36.46
1274.00,35.30
1273.00,34.12
1272.00,32.91
1271.00,31.70
1270.00,30.50
1269.00,29.26
1268.00,27.97
1267.00,26.70
1266.00,25.46
1265.00,24.24
1264.00,23.07
1263.00,22.03
1262.00,21.16
1261.00,20.44
1260.00,19.88
1259.00,19.54
1258.00,19.38
1257.00,19.30
1256.00,19.23
1255.00,19.16
1254.00,19.03
1253.00,18.77
1252.00,18.33
1251.00,17.80
1250.00,17.19
1249.00,16.44
1248.00,15.59
1247.00,14.71
1246.00,13.84
1245.00,12.95
1244.00,12.05
1243.00,11.27
1242.00,10.66
1241.00,10.20
1240.00,9.91
1239.00,9.93
1238.00,10.31
1237.00,11.03
1236.00,12.13
1235.00,13.70
1234.00,15.78
1233.00,18.26
1232.00,21.09
1231.00,24.24
1230.00,27.60
1229.00,30.99
1228.00,34.30
1227.00,37.50
1226.00,40.52
1225.00,43.26
1224.00,45.72
1223.00,47.95
1222.00,50.00
1221.00,51.91
1220.00,53.76
1219.00,55.61
1218.00,57.46
1217.00,59.27
1216.00,61.01
1215.00,62.68
1214.00,64.27
1213.00,65.74
1212.00,67.12
1211.00,68.42
1210.00,69.65
1209.00,70.79
1208.00,71.86
1207.00,72.88
1206.00,73.86
1205.00,74.78
1204.00,75.66
1203.00,76.51
1202.00,77.32
1201.00,78.10
1200.00,78.85
1199.00,79.58
1198.00,80.29
1197.00,80.96
1196.00,81.61
1195.00,82.25
1194.00,82.87
1193.00,83.47
1192.00,84.06
1191.00,84.60
1190.00,85.10
1189.00,85.52
1188.00,85.85
1187.00,86.08
1186.00,86.20
1185.00,86.18
1184.00,86.02
1183.00,85.72
1182.00,85.26
1181.00,84.67
1180.00,83.97
1179.00,83.22
1178.00,82.46
1177.00,81.75
1176.00,81.15
1175.00,80.72
1174.00,80.51
1173.00,80.56
1172.00,80.89
1171.00,81.50
1170.00,82.33
1169.00,83.28
1168.00,84.22
1167.00,85.07
1166.00,85.74
1165.00,86.22
1164.00,86.53
1163.00,86.70
1162.00,86.77
1161.00,86.72
1160.00,86.57
1159.00,86.31
1158.00,85.95
1157.00,85.50
1156.00,84.98
1155.00,84.40
1154.00,83.77
1153.00,83.10
1152.00,82.40
1151.00,81.65
1150.00,80.86
1149.00,80.00
1148.00,79.07
1147.00,78.06
1146.00,76.98
1145.00,75.80
1144.00,74.55
1143.00,73.25
1142.00,71.93
1141.00,70.60
1140.00,69.27
1139.00,67.96
1138.00,66.67
1137.00,65.37
1136.00,64.05
1135.00,62.73
1134.00,61.38
1133.00,59.99
1132.00,58.53
1131.00,57.01
1130.00,55.40
1129.00,53.68
1128.00,51.82
1127.00,49.86
1126.00,47.83
1125.00,45.71
1124.00,43.55
1123.00,41.43
1122.00,39.41
1121.00,37.53
1120.00,35.83
1119.00,34.41
1118.00,33.31
1117.00,32.54
1116.00,32.13
1115.00,32.14
1114.00,32.52
1113.00,33.13
1112.00,33.79
1111.00,34.31
1110.00,34.48
1109.00,34.10
1108.00,33.14
1107.00,31.69
1106.00,29.90
1105.00,27.88
1104.00,25.78
1103.00,23.73
1102.00,21.82
1101.00,20.03
1100.00,18.39
1099.00,16.97
1098.00,15.79
1097.00,14.81
1096.00,14.04
1095.00,13.53
1094.00,13.30
1093.00,13.27
1092.00,13.41
1091.00,13.78
1090.00,14.34
1089.00,15.01
1088.00,15.76
1087.00,16.63
1086.00,17.64
1085.00,18.75
1084.00,20.01
1083.00,21.51
1082.00,23.32
1081.00,25.42
1080.00,27.81
1079.00,30.50
1078.00,33.41
1077.00,36.38
1076.00,39.29
1075.00,42.11
1074.00,44.76
1073.00,47.18
1072.00,49.37
1071.00,51.37
1070.00,53.21
1069.00,54.89
1068.00,56.43
1067.00,57.88
1066.00,59.24
1065.00,60.50
1064.00,61.64
1063.00,62.70
1062.00,63.68
1061.00,64.54
1060.00,65.27
1059.00,65.87
1058.00,66.34
1057.00,66.65
1056.00,66.79
1055.00,66.79
1054.00,66.65
1053.00,66.36
1052.00,65.94
1051.00,65.43
1050.00,64.86
1049.00,64.24
1048.00,63.62
1047.00,63.05
1046.00,62.58
1045.00,62.21
1044.00,61.96
1043.00,61.88
1042.00,61.97
1041.00,62.19
1040.00,62.52
1039.00,62.96
1038.00,63.47
1037.00,64.00
1036.00,64.51
1035.00,65.01
1034.00,65.48
1033.00,65.90
1032.00,66.26
1031.00,66.58
1030.00,66.85
1029.00,67.01
1028.00,67.00
1027.00,66.74
1026.00,66.02
1025.00,64.60
1024.00,62.21
1023.00,58.69
1022.00,54.07
1021.00,48.61
1020.00,42.86
1019.00,37.64
1018.00,33.76
1017.00,31.87
1016.00,32.35
1015.00,35.16
1014.00,39.68
1013.00,44.95
1012.00,50.11
1011.00,54.66
1010.00,58.46
1009.00,61.60
1008.00,64.20
1007.00,66.38
1006.00,68.22
1005.00,69.75
1004.00,71.04
1003.00,72.14
1002.00,73.11
1001.00,73.95
1000.00,74.69
999.00,75.34
998.00,75.89
997.00,76.35
996.00,76.72
995.00,77.00
994.00,77.20
993.00,77.31
992.00,77.34
991.00,77.31
990.00,77.21
989.00,77.08
988.00,76.91
987.00,76.75
986.00,76.60
985.00,76.44
984.00,76.27
983.00,76.07
982.00,75.84
981.00,75.53
980.00,75.16
979.00,74.72
978.00,74.23
977.00,73.69
976.00,73.13
975.00,72.60
974.00,72.11
973.00,71.69
972.00,71.35
971.00,71.11
970.00,70.97
969.00,70.91
968.00,70.90
967.00,70.95
966.00,71.03
965.00,71.08
964.00,71.07
963.00,70.98
962.00,70.78
961.00,70.48
960.00,70.12
959.00,69.78
958.00,69.58
957.00,69.57
956.00,69.77
955.00,70.16
954.00,70.67
953.00,71.23
952.00,71.77
951.00,72.30
950.00,72.84
949.00,73.41
948.00,74.02
947.00,74.71
946.00,75.47
945.00,76.26
944.00,77.05
943.00,77.83
942.00,78.56
941.00,79.23
940.00,79.83
939.00,80.36
938.00,80.84
937.00,81.25
936.00,81.61
935.00,81.92
934.00,82.21
933.00,82.45
932.00,82.67
931.00,82.87
930.00,83.06
929.00,83.24
928.00,83.40
927.00,83.58
926.00,83.78
925.00,83.98
924.00,84.18
923.00,84.38
922.00,84.58
921.00,84.78
920.00,84.95
919.00,85.10
918.00,85.23
917.00,85.31
916.00,85.34
915.00,85.32
914.00,85.26
913.00,85.15
912.00,84.96
911.00,84.70
910.00,84.36
909.00,83.90
908.00,83.32
907.00,82.65
906.00,81.91
905.00,81.13
904.00,80.34
903.00,79.62
902.00,79.00
901.00,78.50
900.00,78.12
899.00,77.86
898.00,77.71
897.00,77.62
896.00,77.55
895.00,77.51
894.00,77.49
893.00,77.46
892.00,77.41
891.00,77.35
890.00,77.27
889.00,77.13
888.00,76.91
887.00,76.59
886.00,76.13
885.00,75.48
884.00,74.59
883.00,73.45
882.00,72.03
881.00,70.31
880.00,68.32
879.00,66.13
878.00,63.86
877.00,61.62
876.00,59.57
875.00,57.95
874.00,56.94
873.00,56.66
872.00,57.18
871.00,58.46
870.00,60.34
869.00,62.55
868.00,64.84
867.00,67.06
866.00,69.09
865.00,70.87
864.00,72.37
863.00,73.63
862.00,74.66
861.00,75.47
860.00,76.08
859.00,76.52
858.00,76.83
857.00,77.03
856.00,77.13
855.00,77.18
854.00,77.19
853.00,77.16
852.00,77.10
851.00,77.03
850.00,76.96
849.00,76.89
848.00,76.82
847.00,76.79
846.00,76.79
845.00,76.82
844.00,76.87
843.00,76.97
842.00,77.13
841.00,77.33
840.00,77.55
839.00,77.83
838.00,78.14
837.00,78.47
836.00,78.80
835.00,79.15
834.00,79.50
833.00,79.82
832.00,80.12
831.00,80.41
830.00,80.69
829.00,80.93
828.00,81.13
827.00,81.30
826.00,81.46
825.00,81.59
824.00,81.68
823.00,81.77
822.00,81.85
821.00,81.91
820.00,81.93
819.00,81.95
818.00,81.95
817.00,81.93
816.00,81.88
815.00,81.84
814.00,81.81
813.00,81.78
812.00,81.74
811.00,81.71
810.00,81.69
809.00,81.67
808.00,81.66
807.00,81.68
806.00,81.72
805.00,81.78
804.00,81.88
803.00,82.02
802.00,82.21
801.00,82.36
800.00,82.30
799.00,81.87
798.00,80.94
797.00,79.56
796.00,78.00
795.00,76.69
794.00,75.96
793.00,75.95
792.00,76.57
791.00,77.67
790.00,79.01
789.00,80.38
788.00,81.68
787.00,82.89
786.00,84.00
785.00,84.98
784.00,85.83
783.00,86.54
782.00,87.13
781.00,87.60
780.00,87.96
779.00,88.25
778.00,88.50
777.00,88.71
776.00,88.88
775.00,89.06
774.00,89.28
773.00,89.53
772.00,89.83
771.00,90.19
770.00,90.59
769.00,91.00
768.00,91.40
767.00,91.78
766.00,92.13
765.00,92.44
764.00,92.70
763.00,92.95
762.00,93.16
761.00,93.34
760.00,93.49
759.00,93.61
758.00,93.72
757.00,93.79
756.00,93.82
755.00,93.81
754.00,93.76
753.00,93.65
752.00,93.47
751.00,93.24
750.00,92.93
749.00,92.52
748.00,92.00
747.00,91.32
746.00,90.45
745.00,89.29
744.00,87.73
743.00,85.70
742.00,83.06
741.00,79.69
740.00,75.57
739.00,70.79
738.00,65.54
737.00,60.04
736.00,54.51
735.00,49.14
734.00,44.01
733.00,39.08
732.00,34.25
731.00,29.53
730.00,24.91
729.00,20.42
728.00,16.19
727.00,12.56
726.00,9.88
725.00,8.44
724.00,8.43
723.00,10.02
722.00,13.19
721.00,17.73
720.00,23.21
719.00,29.02
718.00,34.58
717.00,39.58
716.00,43.89
715.00,47.47
714.00,50.31
713.00,52.47
712.00,54.07
711.00,55.30
710.00,56.35
709.00,57.30
708.00,58.23
707.00,59.19
706.00,60.21
705.00,61.29
704.00,62.42
703.00,63.64
702.00,64.95
701.00,66.33
700.00,67.72
699.00,69.06
698.00,70.30
697.00,71.37
696.00,72.27
695.00,73.04
694.00,73.71
693.00,74.30
692.00,74.79
691.00,75.22
690.00,75.60
689.00,75.94
688.00,76.21
687.00,76.41
686.00,76.53
685.00,76.56
684.00,76.50
683.00,76.41
682.00,76.33
681.00,76.34
680.00,76.46
679.00,76.75
678.00,77.20
677.00,77.73
676.00,78.25
675.00,78.73
674.00,79.16
673.00,79.53
672.00,79.85
671.00,80.12
670.00,80.37
669.00,80.59
668.00,80.74
667.00,80.87
666.00,81.00
665.00,81.15
664.00,81.28
663.00,81.41
662.00,81.53
661.00,81.62
660.00,81.68
659.00,81.76
658.00,81.89
657.00,82.03
656.00,82.15
655.00,82.23
654.00,82.29
653.00,82.33
652.00,82.34
651.00,82.31
650.00,82.27
