Created as New Dataset,PK (polyketone) GF
cm-1,%T
4000.00,99.23
3999.00,99.23
3998.00,99.24
3997.00,99.24
3996.00,99.24
3995.00,99.24
3994.00,99.24
3993.00,99.24
3992.00,99.24
3991.00,99.24
3990.00,99.24
3989.00,99.24
3988.00,99.23
3987.00,99.23
3986.00,99.24
3985.00,99.24
3984.00,99.24
3983.00,99.24
3982.00,99.24
3981.00,99.24
3980.00,99.24
3979.00,99.24
3978.00,99.24
3977.00,99.24
3976.00,99.24
3975.00,99.24
3974.00,99.25
3973.00,99.25
3972.00,99.25
3971.00,99.25
3970.00,99.25
3969.00,99.25
3968.00,99.25
3967.00,99.25
3966.00,99.25
3965.00,99.25
3964.00,99.25
3963.00,99.25
3962.00,99.25
3961.00,99.25
3960.00,99.25
3959.00,99.25
3958.00,99.25
3957.00,99.25
3956.00,99.26
3955.00,99.26
3954.00,99.26
3953.00,99.26
3952.00,99.26
3951.00,99.26
3950.00,99.27
3949.00,99.27
3948.00,99.27
3947.00,99.26
3946.00,99.26
3945.00,99.26
3944.00,99.26
3943.00,99.26
3942.00,99.27
3941.00,99.27
3940.00,99.27
3939.00,99.27
3938.00,99.27
3937.00,99.27
3936.00,99.27
3935.00,99.27
3934.00,99.27
3933.00,99.27
3932.00,99.28
3931.00,99.28
3930.00,99.27
3929.00,99.27
3928.00,99.27
3927.00,99.27
3926.00,99.27
3925.00,99.27
3924.00,99.27
3923.00,99.27
3922.00,99.27
3921.00,99.27
3920.00,99.27
3919.00,99.27
3918.00,99.27
3917.00,99.27
3916.00,99.27
3915.00,99.28
3914.00,99.28
3913.00,99.29
3912.00,99.29
3911.00,99.29
3910.00,99.28
3909.00,99.28
3908.00,99.27
3907.00,99.27
3906.00,99.27
3905.00,99.27
3904.00,99.27
3903.00,99.27
3902.00,99.27
3901.00,99.27
3900.00,99.27
3899.00,99.27
3898.00,99.27
3897.00,99.27
3896.00,99.28
3895.00,99.28
3894.00,99.28
3893.00,99.28
3892.00,99.28
3891.00,99.28
3890.00,99.28
3889.00,99.28
3888.00,99.28
3887.00,99.28
3886.00,99.28
3885.00,99.28
3884.00,99.28
3883.00,99.28
3882.00,99.28
3881.00,99.28
3880.00,99.28
3879.00,99.28
3878.00,99.27
3877.00,99.27
3876.00,99.28
3875.00,99.28
3874.00,99.28
3873.00,99.28
3872.00,99.27
3871.00,99.27
3870.00,99.27
3869.00,99.27
3868.00,99.27
3867.00,99.27
3866.00,99.27
3865.00,99.27
3864.00,99.27
3863.00,99.27
3862.00,99.28
3861.00,99.28
3860.00,99.28
3859.00,99.28
3858.00,99.28
3857.00,99.28
3856.00,99.28
3855.00,99.28
3854.00,99.28
3853.00,99.28
3852.00,99.28
3851.00,99.28
3850.00,99.28
3849.00,99.28
3848.00,99.29
3847.00,99.29
3846.00,99.29
3845.00,99.29
3844.00,99.29
3843.00,99.28
3842.00,99.28
3841.00,99.28
3840.00,99.28
3839.00,99.28
3838.00,99.27
3837.00,99.27
3836.00,99.27
3835.00,99.28
3834.00,99.28
3833.00,99.28
3832.00,99.28
3831.00,99.28
3830.00,99.28
3829.00,99.28
3828.00,99.28
3827.00,99.28
3826.00,99.28
3825.00,99.27
3824.00,99.26
3823.00,99.26
3822.00,99.26
3821.00,99.26
3820.00,99.26
3819.00,99.25
3818.00,99.26
3817.00,99.26
3816.00,99.26
3815.00,99.27
3814.00,99.27
3813.00,99.27
3812.00,99.27
3811.00,99.27
3810.00,99.28
3809.00,99.28
3808.00,99.28
3807.00,99.27
3806.00,99.27
3805.00,99.26
3804.00,99.26
3803.00,99.26
3802.00,99.27
3801.00,99.27
3800.00,99.27
3799.00,99.26
3798.00,99.26
3797.00,99.26
3796.00,99.27
3795.00,99.27
3794.00,99.27
3793.00,99.27
3792.00,99.27
3791.00,99.27
3790.00,99.27
3789.00,99.27
3788.00,99.27
3787.00,99.27
3786.00,99.27
3785.00,99.27
3784.00,99.26
3783.00,99.26
3782.00,99.26
3781.00,99.26
3780.00,99.25
3779.00,99.25
3778.00,99.25
3777.00,99.26
3776.00,99.26
3775.00,99.26
3774.00,99.26
3773.00,99.26
3772.00,99.26
3771.00,99.26
3770.00,99.26
3769.00,99.25
3768.00,99.25
3767.00,99.25
3766.00,99.25
3765.00,99.25
3764.00,99.25
3763.00,99.25
3762.00,99.25
3761.00,99.25
3760.00,99.25
3759.00,99.25
3758.00,99.24
3757.00,99.24
3756.00,99.24
3755.00,99.24
3754.00,99.23
3753.00,99.23
3752.00,99.23
3751.00,99.23
3750.00,99.22
3749.00,99.22
3748.00,99.22
3747.00,99.23
3746.00,99.23
3745.00,99.23
3744.00,99.24
3743.00,99.24
3742.00,99.24
3741.00,99.24
3740.00,99.25
3739.00,99.25
3738.00,99.25
3737.00,99.25
3736.00,99.25
3735.00,99.25
3734.00,99.25
3733.00,99.25
3732.00,99.26
3731.00,99.26
3730.00,99.26
3729.00,99.25
3728.00,99.25
3727.00,99.25
3726.00,99.25
3725.00,99.26
3724.00,99.26
3723.00,99.26
3722.00,99.26
3721.00,99.26
3720.00,99.26
3719.00,99.26
3718.00,99.26
3717.00,99.25
3716.00,99.25
3715.00,99.24
3714.00,99.24
3713.00,99.23
3712.00,99.23
3711.00,99.23
3710.00,99.24
3709.00,99.25
3708.00,99.26
3707.00,99.26
3706.00,99.26
3705.00,99.26
3704.00,99.26
3703.00,99.26
3702.00,99.26
3701.00,99.26
3700.00,99.26
3699.00,99.26
3698.00,99.25
3697.00,99.25
3696.00,99.25
3695.00,99.24
3694.00,99.24
3693.00,99.24
3692.00,99.24
3691.00,99.23
3690.00,99.23
3689.00,99.22
3688.00,99.22
3687.00,99.22
3686.00,99.22
3685.00,99.22
3684.00,99.21
3683.00,99.21
3682.00,99.20
3681.00,99.19
3680.00,99.19
3679.00,99.18
3678.00,99.16
3677.00,99.15
3676.00,99.14
3675.00,99.13
3674.00,99.12
3673.00,99.11
3672.00,99.11
3671.00,99.11
3670.00,99.11
3669.00,99.11
3668.00,99.10
3667.00,99.09
3666.00,99.08
3665.00,99.08
3664.00,99.07
3663.00,99.06
3662.00,99.05
3661.00,99.04
3660.00,99.02
3659.00,99.01
3658.00,99.00
3657.00,98.98
3656.00,98.97
3655.00,98.96
3654.00,98.95
3653.00,98.94
3652.00,98.93
3651.00,98.92
3650.00,98.90
3649.00,98.87
3648.00,98.85
3647.00,98.84
3646.00,98.83
3645.00,98.82
3644.00,98.81
3643.00,98.80
3642.00,98.80
3641.00,98.79
3640.00,98.78
3639.00,98.76
3638.00,98.75
3637.00,98.73
3636.00,98.72
3635.00,98.70
3634.00,98.69
3633.00,98.68
3632.00,98.66
3631.00,98.65
3630.00,98.64
3629.00,98.63
3628.00,98.62
3627.00,98.61
3626.00,98.60
3625.00,98.59
3624.00,98.57
3623.00,98.56
3622.00,98.55
3621.00,98.54
3620.00,98.53
3619.00,98.52
3618.00,98.51
3617.00,98.50
3616.00,98.49
3615.00,98.48
3614.00,98.47
3613.00,98.47
3612.00,98.46
3611.00,98.46
3610.00,98.47
3609.00,98.47
3608.00,98.47
3607.00,98.47
3606.00,98.46
3605.00,98.46
3604.00,98.46
3603.00,98.46
3602.00,98.46
3601.00,98.46
3600.00,98.46
3599.00,98.46
3598.00,98.46
3597.00,98.46
3596.00,98.46
3595.00,98.47
3594.00,98.47
3593.00,98.47
3592.00,98.48
3591.00,98.48
3590.00,98.48
3589.00,98.49
3588.00,98.49
3587.00,98.49
3586.00,98.49
3585.00,98.49
3584.00,98.50
3583.00,98.50
3582.00,98.50
3581.00,98.51
3580.00,98.52
3579.00,98.53
3578.00,98.53
3577.00,98.54
3576.00,98.54
3575.00,98.54
3574.00,98.55
3573.00,98.55
3572.00,98.55
3571.00,98.55
3570.00,98.55
3569.00,98.55
3568.00,98.55
3567.00,98.56
3566.00,98.56
3565.00,98.56
3564.00,98.57
3563.00,98.57
3562.00,98.58
3561.00,98.58
3560.00,98.59
3559.00,98.59
3558.00,98.58
3557.00,98.58
3556.00,98.58
3555.00,98.58
3554.00,98.58
3553.00,98.58
3552.00,98.58
3551.00,98.58
3550.00,98.57
3549.00,98.57
3548.00,98.57
3547.00,98.57
3546.00,98.58
3545.00,98.57
3544.00,98.57
3543.00,98.57
3542.00,98.57
3541.00,98.56
3540.00,98.56
3539.00,98.56
3538.00,98.57
3537.00,98.57
3536.00,98.57
3535.00,98.57
3534.00,98.57
3533.00,98.57
3532.00,98.57
3531.00,98.57
3530.00,98.57
3529.00,98.57
3528.00,98.56
3527.00,98.56
3526.00,98.55
3525.00,98.55
3524.00,98.56
3523.00,98.56
3522.00,98.56
3521.00,98.57
3520.00,98.57
3519.00,98.58
3518.00,98.58
3517.00,98.58
3516.00,98.58
3515.00,98.58
3514.00,98.59
3513.00,98.59
3512.00,98.59
3511.00,98.59
3510.00,98.60
3509.00,98.60
3508.00,98.61
3507.00,98.61
3506.00,98.62
3505.00,98.63
3504.00,98.63
3503.00,98.64
3502.00,98.64
3501.00,98.64
3500.00,98.64
3499.00,98.65
3498.00,98.65
3497.00,98.65
3496.00,98.66
3495.00,98.66
3494.00,98.66
3493.00,98.67
3492.00,98.68
3491.00,98.69
3490.00,98.70
3489.00,98.70
3488.00,98.71
3487.00,98.71
3486.00,98.72
3485.00,98.72
3484.00,98.72
3483.00,98.72
3482.00,98.72
3481.00,98.73
3480.00,98.74
3479.00,98.74
3478.00,98.74
3477.00,98.74
3476.00,98.74
3475.00,98.74
3474.00,98.75
3473.00,98.75
3472.00,98.76
3471.00,98.77
3470.00,98.77
3469.00,98.77
3468.00,98.77
3467.00,98.77
3466.00,98.77
3465.00,98.77
3464.00,98.77
3463.00,98.77
3462.00,98.78
3461.00,98.78
3460.00,98.78
3459.00,98.77
3458.00,98.77
3457.00,98.77
3456.00,98.77
3455.00,98.77
3454.00,98.77
3453.00,98.77
3452.00,98.76
3451.00,98.76
3450.00,98.76
3449.00,98.76
3448.00,98.76
3447.00,98.76
3446.00,98.76
3445.00,98.75
3444.00,98.75
3443.00,98.75
3442.00,98.74
3441.00,98.74
3440.00,98.74
3439.00,98.74
3438.00,98.74
3437.00,98.74
3436.00,98.73
3435.00,98.72
3434.00,98.71
3433.00,98.69
3432.00,98.68
3431.00,98.67
3430.00,98.65
3429.00,98.64
3428.00,98.62
3427.00,98.59
3426.00,98.57
3425.00,98.55
3424.00,98.53
3423.00,98.51
3422.00,98.49
3421.00,98.46
3420.00,98.43
3419.00,98.41
3418.00,98.39
3417.00,98.36
3416.00,98.34
3415.00,98.32
3414.00,98.30
3413.00,98.28
3412.00,98.25
3411.00,98.22
3410.00,98.19
3409.00,98.17
3408.00,98.14
3407.00,98.11
3406.00,98.09
3405.00,98.07
3404.00,98.06
3403.00,98.05
3402.00,98.04
3401.00,98.02
3400.00,97.99
3399.00,97.96
3398.00,97.93
3397.00,97.91
3396.00,97.90
3395.00,97.90
3394.00,97.91
3393.00,97.92
3392.00,97.94
3391.00,97.96
3390.00,97.99
3389.00,98.02
3388.00,98.06
3387.00,98.11
3386.00,98.16
3385.00,98.22
3384.00,98.28
3383.00,98.34
3382.00,98.39
3381.00,98.44
3380.00,98.49
3379.00,98.53
3378.00,98.57
3377.00,98.60
3376.00,98.63
3375.00,98.66
3374.00,98.69
3373.00,98.72
3372.00,98.76
3371.00,98.80
3370.00,98.83
3369.00,98.85
3368.00,98.86
3367.00,98.87
3366.00,98.87
3365.00,98.88
3364.00,98.89
3363.00,98.90
3362.00,98.91
3361.00,98.92
3360.00,98.92
3359.00,98.93
3358.00,98.94
3357.00,98.95
3356.00,98.96
3355.00,98.97
3354.00,98.99
3353.00,99.00
3352.00,99.01
3351.00,99.01
3350.00,99.01
3349.00,99.01
3348.00,99.01
3347.00,99.02
3346.00,99.02
3345.00,99.03
3344.00,99.03
3343.00,99.03
3342.00,99.04
3341.00,99.04
3340.00,99.05
3339.00,99.05
3338.00,99.06
3337.00,99.05
3336.00,99.05
3335.00,99.05
3334.00,99.05
3333.00,99.05
3332.00,99.06
3331.00,99.06
3330.00,99.06
3329.00,99.07
3328.00,99.07
3327.00,99.08
3326.00,99.08
3325.00,99.08
3324.00,99.08
3323.00,99.08
3322.00,99.08
3321.00,99.08
3320.00,99.08
3319.00,99.08
3318.00,99.08
3317.00,99.08
3316.00,99.08
3315.00,99.08
3314.00,99.09
3313.00,99.09
3312.00,99.09
3311.00,99.10
3310.00,99.10
3309.00,99.11
3308.00,99.11
3307.00,99.11
3306.00,99.11
3305.00,99.11
3304.00,99.11
3303.00,99.11
3302.00,99.11
3301.00,99.11
3300.00,99.11
3299.00,99.11
3298.00,99.12
3297.00,99.12
3296.00,99.12
3295.00,99.12
3294.00,99.12
3293.00,99.12
3292.00,99.12
3291.00,99.12
3290.00,99.12
3289.00,99.12
3288.00,99.12
3287.00,99.11
3286.00,99.11
3285.00,99.12
3284.00,99.12
3283.00,99.13
3282.00,99.13
3281.00,99.13
3280.00,99.12
3279.00,99.12
3278.00,99.12
3277.00,99.12
3276.00,99.13
3275.00,99.13
3274.00,99.14
3273.00,99.14
3272.00,99.14
3271.00,99.13
3270.00,99.13
3269.00,99.13
3268.00,99.13
3267.00,99.13
3266.00,99.12
3265.00,99.12
3264.00,99.12
3263.00,99.13
3262.00,99.13
3261.00,99.13
3260.00,99.14
3259.00,99.14
3258.00,99.14
3257.00,99.14
3256.00,99.14
3255.00,99.13
3254.00,99.13
3253.00,99.13
3252.00,99.13
3251.00,99.13
3250.00,99.13
3249.00,99.13
3248.00,99.13
3247.00,99.13
3246.00,99.13
3245.00,99.14
3244.00,99.14
3243.00,99.13
3242.00,99.13
3241.00,99.13
3240.00,99.12
3239.00,99.12
3238.00,99.13
3237.00,99.13
3236.00,99.13
3235.00,99.13
3234.00,99.13
3233.00,99.14
3232.00,99.13
3231.00,99.13
3230.00,99.13
3229.00,99.14
3228.00,99.14
3227.00,99.14
3226.00,99.14
3225.00,99.14
3224.00,99.13
3223.00,99.13
3222.00,99.13
3221.00,99.14
3220.00,99.14
3219.00,99.14
3218.00,99.14
3217.00,99.14
3216.00,99.14
3215.00,99.14
3214.00,99.14
3213.00,99.14
3212.00,99.14
3211.00,99.13
3210.00,99.13
3209.00,99.14
3208.00,99.14
3207.00,99.14
3206.00,99.14
3205.00,99.14
3204.00,99.14
3203.00,99.14
3202.00,99.15
3201.00,99.15
3200.00,99.15
3199.00,99.15
3198.00,99.15
3197.00,99.15
3196.00,99.14
3195.00,99.14
3194.00,99.14
3193.00,99.15
3192.00,99.15
3191.00,99.15
3190.00,99.15
3189.00,99.15
3188.00,99.14
3187.00,99.14
3186.00,99.14
3185.00,99.14
3184.00,99.14
3183.00,99.14
3182.00,99.15
3181.00,99.15
3180.00,99.15
3179.00,99.15
3178.00,99.15
3177.00,99.14
3176.00,99.14
3175.00,99.14
3174.00,99.14
3173.00,99.14
3172.00,99.14
3171.00,99.14
3170.00,99.14
3169.00,99.14
3168.00,99.14
3167.00,99.14
3166.00,99.14
3165.00,99.14
3164.00,99.14
3163.00,99.14
3162.00,99.14
3161.00,99.13
3160.00,99.13
3159.00,99.13
3158.00,99.13
3157.00,99.13
3156.00,99.13
3155.00,99.13
3154.00,99.13
3153.00,99.13
3152.00,99.13
3151.00,99.13
3150.00,99.13
3149.00,99.12
3148.00,99.12
3147.00,99.12
3146.00,99.12
3145.00,99.12
3144.00,99.12
3143.00,99.11
3142.00,99.11
3141.00,99.11
3140.00,99.11
3139.00,99.11
3138.00,99.11
3137.00,99.11
3136.00,99.11
3135.00,99.11
3134.00,99.11
3133.00,99.10
3132.00,99.09
3131.00,99.09
3130.00,99.09
3129.00,99.09
3128.00,99.09
3127.00,99.08
3126.00,99.08
3125.00,99.08
3124.00,99.07
3123.00,99.07
3122.00,99.07
3121.00,99.06
3120.00,99.06
3119.00,99.06
3118.00,99.05
3117.00,99.05
3116.00,99.05
3115.00,99.04
3114.00,99.04
3113.00,99.04
3112.00,99.04
3111.00,99.03
3110.00,99.03
3109.00,99.03
3108.00,99.03
3107.00,99.02
3106.00,99.02
3105.00,99.02
3104.00,99.02
3103.00,99.02
3102.00,99.01
3101.00,99.01
3100.00,99.00
3099.00,99.00
3098.00,99.00
3097.00,98.99
3096.00,98.98
3095.00,98.98
3094.00,98.97
3093.00,98.96
3092.00,98.96
3091.00,98.96
3090.00,98.96
3089.00,98.95
3088.00,98.95
3087.00,98.94
3086.00,98.94
3085.00,98.93
3084.00,98.92
3083.00,98.92
3082.00,98.91
3081.00,98.90
3080.00,98.90
3079.00,98.89
3078.00,98.89
3077.00,98.88
3076.00,98.87
3075.00,98.86
3074.00,98.85
3073.00,98.84
3072.00,98.83
3071.00,98.83
3070.00,98.82
3069.00,98.82
3068.00,98.81
3067.00,98.81
3066.00,98.80
3065.00,98.80
3064.00,98.79
3063.00,98.78
3062.00,98.78
3061.00,98.77
3060.00,98.76
3059.00,98.76
3058.00,98.75
3057.00,98.74
3056.00,98.73
3055.00,98.73
3054.00,98.72
3053.00,98.72
3052.00,98.71
3051.00,98.71
3050.00,98.70
3049.00,98.70
3048.00,98.70
3047.00,98.69
3046.00,98.69
3045.00,98.68
3044.00,98.68
3043.00,98.67
3042.00,98.67
3041.00,98.66
3040.00,98.66
3039.00,98.65
3038.00,98.65
3037.00,98.65
3036.00,98.64
3035.00,98.63
3034.00,98.63
3033.00,98.62
3032.00,98.62
3031.00,98.61
3030.00,98.61
3029.00,98.61
3028.00,98.60
3027.00,98.59
3026.00,98.58
3025.00,98.57
3024.00,98.56
3023.00,98.55
3022.00,98.54
3021.00,98.53
3020.00,98.51
3019.00,98.50
3018.00,98.49
3017.00,98.47
3016.00,98.46
3015.00,98.44
3014.00,98.43
3013.00,98.41
3012.00,98.38
3011.00,98.36
3010.00,98.33
3009.00,98.30
3008.00,98.27
3007.00,98.24
3006.00,98.21
3005.00,98.18
3004.00,98.14
3003.00,98.10
3002.00,98.07
3001.00,98.03
3000.00,97.99
2999.00,97.94
2998.00,97.90
2997.00,97.85
2996.00,97.80
2995.00,97.75
2994.00,97.70
2993.00,97.65
2992.00,97.60
2991.00,97.54
2990.00,97.48
2989.00,97.43
2988.00,97.36
2987.00,97.30
2986.00,97.24
2985.00,97.17
2984.00,97.11
2983.00,97.04
2982.00,96.98
2981.00,96.91
2980.00,96.84
2979.00,96.78
2978.00,96.72
2977.00,96.66
2976.00,96.60
2975.00,96.54
2974.00,96.49
2973.00,96.43
2972.00,96.38
2971.00,96.34
2970.00,96.30
2969.00,96.26
2968.00,96.23
2967.00,96.20
2966.00,96.17
2965.00,96.14
2964.00,96.10
2963.00,96.06
2962.00,96.02
2961.00,95.98
2960.00,95.93
2959.00,95.88
2958.00,95.82
2957.00,95.77
2956.00,95.72
2955.00,95.67
2954.00,95.62
2953.00,95.56
2952.00,95.51
2951.00,95.45
2950.00,95.39
2949.00,95.33
2948.00,95.28
2947.00,95.22
2946.00,95.16
2945.00,95.11
2944.00,95.04
2943.00,94.98
2942.00,94.92
2941.00,94.85
2940.00,94.79
2939.00,94.72
2938.00,94.65
2937.00,94.57
2936.00,94.49
2935.00,94.39
2934.00,94.29
2933.00,94.17
2932.00,94.03
2931.00,93.87
2930.00,93.69
2929.00,93.48
2928.00,93.24
2927.00,92.96
2926.00,92.63
2925.00,92.27
2924.00,91.87
2923.00,91.43
2922.00,90.98
2921.00,90.54
2920.00,90.14
2919.00,89.80
2918.00,89.55
2917.00,89.38
2916.00,89.28
2915.00,89.24
2914.00,89.26
2913.00,89.32
2912.00,89.42
2911.00,89.56
2910.00,89.74
2909.00,89.95
2908.00,90.19
2907.00,90.45
2906.00,90.73
2905.00,91.03
2904.00,91.33
2903.00,91.65
2902.00,91.98
2901.00,92.31
2900.00,92.65
2899.00,92.99
2898.00,93.33
2897.00,93.66
2896.00,93.98
2895.00,94.28
2894.00,94.58
2893.00,94.85
2892.00,95.11
2891.00,95.34
2890.00,95.56
2889.00,95.75
2888.00,95.92
2887.00,96.07
2886.00,96.20
2885.00,96.33
2884.00,96.44
2883.00,96.54
2882.00,96.63
2881.00,96.72
2880.00,96.81
2879.00,96.90
2878.00,96.98
2877.00,97.06
2876.00,97.13
2875.00,97.21
2874.00,97.28
2873.00,97.34
2872.00,97.40
2871.00,97.46
2870.00,97.52
2869.00,97.57
2868.00,97.62
2867.00,97.66
2866.00,97.70
2865.00,97.73
2864.00,97.76
2863.00,97.78
2862.00,97.80
2861.00,97.82
2860.00,97.82
2859.00,97.82
2858.00,97.82
2857.00,97.81
2856.00,97.80
2855.00,97.79
2854.00,97.78
2853.00,97.78
2852.00,97.79
2851.00,97.81
2850.00,97.84
2849.00,97.89
2848.00,97.94
2847.00,97.99
2846.00,98.04
2845.00,98.08
2844.00,98.12
2843.00,98.15
2842.00,98.18
2841.00,98.21
2840.00,98.23
2839.00,98.24
2838.00,98.26
2837.00,98.27
2836.00,98.28
2835.00,98.29
2834.00,98.30
2833.00,98.31
2832.00,98.32
2831.00,98.32
2830.00,98.33
2829.00,98.33
2828.00,98.34
2827.00,98.34
2826.00,98.35
2825.00,98.35
2824.00,98.36
2823.00,98.36
2822.00,98.37
2821.00,98.37
2820.00,98.38
2819.00,98.39
2818.00,98.40
2817.00,98.41
2816.00,98.41
2815.00,98.42
2814.00,98.44
2813.00,98.45
2812.00,98.46
2811.00,98.48
2810.00,98.49
2809.00,98.51
2808.00,98.52
2807.00,98.54
2806.00,98.55
2805.00,98.56
2804.00,98.57
2803.00,98.58
2802.00,98.59
2801.00,98.60
2800.00,98.61
2799.00,98.62
2798.00,98.63
2797.00,98.64
2796.00,98.64
2795.00,98.65
2794.00,98.65
2793.00,98.66
2792.00,98.67
2791.00,98.67
2790.00,98.67
2789.00,98.68
2788.00,98.68
2787.00,98.68
2786.00,98.69
2785.00,98.69
2784.00,98.70
2783.00,98.71
2782.00,98.72
2781.00,98.73
2780.00,98.74
2779.00,98.75
2778.00,98.76
2777.00,98.78
2776.00,98.79
2775.00,98.80
2774.00,98.82
2773.00,98.83
2772.00,98.84
2771.00,98.85
2770.00,98.86
2769.00,98.88
2768.00,98.89
2767.00,98.90
2766.00,98.91
2765.00,98.92
2764.00,98.93
2763.00,98.94
2762.00,98.94
2761.00,98.95
2760.00,98.96
2759.00,98.97
2758.00,98.97
2757.00,98.98
2756.00,98.99
2755.00,98.99
2754.00,99.00
2753.00,99.00
2752.00,99.00
2751.00,99.01
2750.00,99.01
2749.00,99.02
2748.00,99.02
2747.00,99.02
2746.00,99.03
2745.00,99.03
2744.00,99.03
2743.00,99.03
2742.00,99.04
2741.00,99.04
2740.00,99.04
2739.00,99.04
2738.00,99.04
2737.00,99.05
2736.00,99.05
2735.00,99.06
2734.00,99.06
2733.00,99.06
2732.00,99.07
2731.00,99.07
2730.00,99.07
2729.00,99.08
2728.00,99.08
2727.00,99.08
2726.00,99.09
2725.00,99.09
2724.00,99.08
2723.00,99.09
2722.00,99.09
2721.00,99.09
2720.00,99.09
2719.00,99.10
2718.00,99.10
2717.00,99.10
2716.00,99.10
2715.00,99.10
2714.00,99.11
2713.00,99.11
2712.00,99.11
2711.00,99.11
2710.00,99.11
2709.00,99.11
2708.00,99.11
2707.00,99.12
2706.00,99.12
2705.00,99.12
2704.00,99.12
2703.00,99.12
2702.00,99.13
2701.00,99.13
2700.00,99.13
2699.00,99.13
2698.00,99.14
2697.00,99.14
2696.00,99.14
2695.00,99.14
2694.00,99.14
2693.00,99.14
2692.00,99.14
2691.00,99.15
2690.00,99.15
2689.00,99.15
2688.00,99.16
2687.00,99.16
2686.00,99.16
2685.00,99.16
2684.00,99.16
2683.00,99.16
2682.00,99.16
2681.00,99.16
2680.00,99.16
2679.00,99.16
2678.00,99.17
2677.00,99.17
2676.00,99.16
2675.00,99.16
2674.00,99.17
2673.00,99.17
2672.00,99.17
2671.00,99.17
2670.00,99.17
2669.00,99.17
2668.00,99.17
2667.00,99.16
2666.00,99.16
2665.00,99.15
2664.00,99.14
2663.00,99.13
2662.00,99.12
2661.00,99.11
2660.00,99.09
2659.00,99.09
2658.00,99.08
2657.00,99.07
2656.00,99.06
2655.00,99.05
2654.00,99.05
2653.00,99.05
2652.00,99.05
2651.00,99.05
2650.00,99.05
2649.00,99.05
2648.00,99.05
2647.00,99.04
2646.00,99.04
2645.00,99.04
2644.00,99.04
2643.00,99.04
2642.00,99.04
2641.00,99.04
2640.00,99.04
2639.00,99.04
2638.00,99.05
2637.00,99.05
2636.00,99.05
2635.00,99.05
2634.00,99.05
2633.00,99.05
2632.00,99.05
2631.00,99.05
2630.00,99.06
2629.00,99.06
2628.00,99.06
2627.00,99.06
2626.00,99.06
2625.00,99.06
2624.00,99.06
2623.00,99.06
2622.00,99.07
2621.00,99.07
2620.00,99.07
2619.00,99.07
2618.00,99.07
2617.00,99.07
2616.00,99.07
2615.00,99.07
2614.00,99.08
2613.00,99.08
2612.00,99.08
2611.00,99.08
2610.00,99.08
2609.00,99.08
2608.00,99.07
2607.00,99.08
2606.00,99.09
2605.00,99.09
2604.00,99.09
2603.00,99.09
2602.00,99.09
2601.00,99.09
2600.00,99.10
2599.00,99.09
2598.00,99.10
2597.00,99.10
2596.00,99.10
2595.00,99.11
2594.00,99.12
2593.00,99.12
2592.00,99.12
2591.00,99.12
2590.00,99.12
2589.00,99.12
2588.00,99.12
2587.00,99.12
2586.00,99.12
2585.00,99.13
2584.00,99.13
2583.00,99.13
2582.00,99.14
2581.00,99.14
2580.00,99.15
2579.00,99.15
2578.00,99.15
2577.00,99.16
2576.00,99.15
2575.00,99.15
2574.00,99.15
2573.00,99.15
2572.00,99.15
2571.00,99.15
2570.00,99.15
2569.00,99.16
2568.00,99.16
2567.00,99.16
2566.00,99.16
2565.00,99.16
2564.00,99.16
2563.00,99.17
2562.00,99.17
2561.00,99.17
2560.00,99.17
2559.00,99.17
2558.00,99.17
2557.00,99.17
2556.00,99.17
2555.00,99.17
2554.00,99.18
2553.00,99.18
2552.00,99.17
2551.00,99.18
2550.00,99.19
2549.00,99.19
2548.00,99.19
2547.00,99.18
2546.00,99.19
2545.00,99.19
2544.00,99.18
2543.00,99.18
2542.00,99.19
2541.00,99.19
2540.00,99.18
2539.00,99.18
2538.00,99.18
2537.00,99.18
2536.00,99.18
2535.00,99.18
2534.00,99.18
2533.00,99.18
2532.00,99.18
2531.00,99.18
2530.00,99.18
2529.00,99.18
2528.00,99.17
2527.00,99.17
2526.00,99.17
2525.00,99.17
2524.00,99.17
2523.00,99.17
2522.00,99.17
2521.00,99.18
2520.00,99.17
2519.00,99.18
2518.00,99.18
2517.00,99.18
2516.00,99.18
2515.00,99.19
2514.00,99.19
2513.00,99.19
2512.00,99.19
2511.00,99.19
2510.00,99.19
2509.00,99.19
2508.00,99.19
2507.00,99.19
2506.00,99.20
2505.00,99.20
2504.00,99.19
2503.00,99.20
2502.00,99.20
2501.00,99.20
2500.00,99.20
2499.00,99.19
2498.00,99.19
2497.00,99.19
2496.00,99.18
2495.00,99.17
2494.00,99.17
2493.00,99.17
2492.00,99.17
2491.00,99.17
2490.00,99.17
2489.00,99.16
2488.00,99.15
2487.00,99.15
2486.00,99.14
2485.00,99.14
2484.00,99.14
2483.00,99.14
2482.00,99.14
2481.00,99.14
2480.00,99.13
2479.00,99.13
2478.00,99.14
2477.00,99.14
2476.00,99.13
2475.00,99.13
2474.00,99.13
2473.00,99.13
2472.00,99.13
2471.00,99.13
2470.00,99.14
2469.00,99.15
2468.00,99.15
2467.00,99.15
2466.00,99.14
2465.00,99.13
2464.00,99.13
2463.00,99.12
2462.00,99.12
2461.00,99.12
2460.00,99.11
2459.00,99.11
2458.00,99.11
2457.00,99.10
2456.00,99.09
2455.00,99.08
2454.00,99.08
2453.00,99.08
2452.00,99.09
2451.00,99.09
2450.00,99.09
2449.00,99.10
2448.00,99.10
2447.00,99.10
2446.00,99.10
2445.00,99.10
2444.00,99.10
2443.00,99.10
2442.00,99.10
2441.00,99.10
2440.00,99.10
2439.00,99.10
2438.00,99.10
2437.00,99.10
2436.00,99.10
2435.00,99.11
2434.00,99.11
2433.00,99.11
2432.00,99.11
2431.00,99.12
2430.00,99.13
2429.00,99.13
2428.00,99.14
2427.00,99.14
2426.00,99.14
2425.00,99.14
2424.00,99.13
2423.00,99.13
2422.00,99.14
2421.00,99.14
2420.00,99.14
2419.00,99.14
2418.00,99.14
2417.00,99.15
2416.00,99.15
2415.00,99.16
2414.00,99.16
2413.00,99.16
2412.00,99.16
2411.00,99.15
2410.00,99.15
2409.00,99.16
2408.00,99.17
2407.00,99.18
2406.00,99.20
2405.00,99.21
2404.00,99.21
2403.00,99.21
2402.00,99.21
2401.00,99.22
2400.00,99.22
2399.00,99.22
2398.00,99.23
2397.00,99.23
2396.00,99.23
2395.00,99.23
2394.00,99.24
2393.00,99.24
2392.00,99.24
2391.00,99.25
2390.00,99.26
2389.00,99.26
2388.00,99.27
2387.00,99.27
2386.00,99.28
2385.00,99.29
2384.00,99.30
2383.00,99.32
2382.00,99.34
2381.00,99.36
2380.00,99.37
2379.00,99.39
2378.00,99.40
2377.00,99.41
2376.00,99.41
2375.00,99.41
2374.00,99.41
2373.00,99.41
2372.00,99.40
2371.00,99.40
2370.00,99.41
2369.00,99.41
2368.00,99.41
2367.00,99.41
2366.00,99.42
2365.00,99.42
2364.00,99.41
2363.00,99.41
2362.00,99.42
2361.00,99.41
2360.00,99.40
2359.00,99.40
2358.00,99.40
2357.00,99.40
2356.00,99.40
2355.00,99.41
2354.00,99.42
2353.00,99.42
2352.00,99.41
2351.00,99.40
2350.00,99.39
2349.00,99.39
2348.00,99.39
2347.00,99.39
2346.00,99.39
2345.00,99.37
2344.00,99.35
2343.00,99.33
2342.00,99.33
2341.00,99.32
2340.00,99.31
2339.00,99.30
2338.00,99.30
2337.00,99.29
2336.00,99.29
2335.00,99.30
2334.00,99.31
2333.00,99.31
2332.00,99.31
2331.00,99.30
2330.00,99.30
2329.00,99.28
2328.00,99.24
2327.00,99.18
2326.00,99.10
2325.00,99.02
2324.00,98.96
2323.00,98.94
2322.00,98.97
2321.00,99.00
2320.00,99.03
2319.00,99.05
2318.00,99.07
2317.00,99.08
2316.00,99.09
2315.00,99.10
2314.00,99.11
2313.00,99.11
2312.00,99.10
2311.00,99.10
2310.00,99.10
2309.00,99.10
2308.00,99.10
2307.00,99.09
2306.00,99.09
2305.00,99.09
2304.00,99.08
2303.00,99.07
2302.00,99.07
2301.00,99.05
2300.00,99.04
2299.00,99.03
2298.00,99.03
2297.00,99.02
2296.00,99.01
2295.00,99.00
2294.00,98.98
2293.00,98.96
2292.00,98.93
2291.00,98.91
2290.00,98.90
2289.00,98.88
2288.00,98.86
2287.00,98.84
2286.00,98.83
2285.00,98.83
2284.00,98.83
2283.00,98.84
2282.00,98.86
2281.00,98.88
2280.00,98.89
2279.00,98.90
2278.00,98.92
2277.00,98.94
2276.00,98.94
2275.00,98.96
2274.00,98.97
2273.00,98.98
2272.00,98.97
2271.00,98.97
2270.00,98.98
2269.00,98.98
2268.00,98.98
2267.00,98.99
2266.00,99.00
2265.00,99.01
2264.00,99.01
2263.00,99.01
2262.00,99.02
2261.00,99.01
2260.00,98.99
2259.00,98.98
2258.00,98.97
2257.00,98.97
2256.00,98.98
2255.00,99.00
2254.00,99.02
2253.00,99.03
2252.00,99.03
2251.00,99.02
2250.00,99.03
2249.00,99.03
2248.00,99.02
2247.00,99.02
2246.00,99.01
2245.00,99.01
2244.00,98.99
2243.00,98.98
2242.00,98.99
2241.00,98.98
2240.00,98.97
2239.00,98.97
2238.00,98.98
2237.00,98.98
2236.00,98.97
2235.00,98.97
2234.00,98.97
2233.00,98.96
2232.00,98.94
2231.00,98.94
2230.00,98.94
2229.00,98.94
2228.00,98.93
2227.00,98.93
2226.00,98.94
2225.00,98.95
2224.00,98.96
2223.00,98.96
2222.00,98.97
2221.00,98.96
2220.00,98.94
2219.00,98.94
2218.00,98.95
2217.00,98.95
2216.00,98.95
2215.00,98.94
2214.00,98.94
2213.00,98.94
2212.00,98.93
2211.00,98.94
2210.00,98.95
2209.00,98.94
2208.00,98.93
2207.00,98.92
2206.00,98.91
2205.00,98.90
2204.00,98.88
2203.00,98.88
2202.00,98.89
2201.00,98.90
2200.00,98.90
2199.00,98.90
2198.00,98.92
2197.00,98.91
2196.00,98.88
2195.00,98.85
2194.00,98.84
2193.00,98.82
2192.00,98.79
2191.00,98.78
2190.00,98.78
2189.00,98.78
2188.00,98.77
2187.00,98.77
2186.00,98.78
2185.00,98.78
2184.00,98.78
2183.00,98.80
2182.00,98.86
2181.00,98.90
2180.00,98.91
2179.00,98.90
2178.00,98.90
2177.00,98.90
2176.00,98.91
2175.00,98.92
2174.00,98.93
2173.00,98.90
2172.00,98.84
2171.00,98.78
2170.00,98.73
2169.00,98.68
2168.00,98.61
2167.00,98.57
2166.00,98.55
2165.00,98.54
2164.00,98.50
2163.00,98.45
2162.00,98.43
2161.00,98.48
2160.00,98.67
2159.00,99.00
2158.00,99.36
2157.00,99.58
2156.00,99.64
2155.00,99.60
2154.00,99.55
2153.00,99.48
2152.00,99.40
2151.00,99.36
2150.00,99.34
2149.00,99.33
2148.00,99.32
2147.00,99.33
2146.00,99.34
2145.00,99.35
2144.00,99.33
2143.00,99.34
2142.00,99.36
2141.00,99.37
2140.00,99.37
2139.00,99.37
2138.00,99.37
2137.00,99.38
2136.00,99.40
2135.00,99.45
2134.00,99.52
2133.00,99.56
2132.00,99.56
2131.00,99.53
2130.00,99.51
2129.00,99.47
2128.00,99.42
2127.00,99.38
2126.00,99.36
2125.00,99.33
2124.00,99.30
2123.00,99.28
2122.00,99.27
2121.00,99.25
2120.00,99.23
2119.00,99.20
2118.00,99.18
2117.00,99.15
2116.00,99.11
2115.00,99.08
2114.00,99.07
2113.00,99.07
2112.00,99.07
2111.00,99.07
2110.00,99.08
2109.00,99.07
2108.00,99.06
2107.00,99.06
2106.00,99.07
2105.00,99.08
2104.00,99.07
2103.00,99.07
2102.00,99.07
2101.00,99.06
2100.00,99.04
2099.00,99.04
2098.00,99.06
2097.00,99.09
2096.00,99.12
2095.00,99.17
2094.00,99.21
2093.00,99.21
2092.00,99.19
2091.00,99.15
2090.00,99.13
2089.00,99.10
2088.00,99.08
2087.00,99.06
2086.00,99.06
2085.00,99.04
2084.00,99.02
2083.00,99.00
2082.00,99.00
2081.00,98.99
2080.00,98.97
2079.00,98.96
2078.00,98.96
2077.00,98.96
2076.00,98.96
2075.00,98.96
2074.00,98.98
2073.00,98.99
2072.00,98.99
2071.00,98.99
2070.00,99.00
2069.00,99.00
2068.00,98.99
2067.00,98.99
2066.00,99.01
2065.00,99.01
2064.00,99.00
2063.00,98.99
2062.00,98.99
2061.00,98.98
2060.00,98.96
2059.00,98.95
2058.00,98.96
2057.00,98.95
2056.00,98.93
2055.00,98.91
2054.00,98.90
2053.00,98.85
2052.00,98.74
2051.00,98.65
2050.00,98.63
2049.00,98.66
2048.00,98.70
2047.00,98.74
2046.00,98.78
2045.00,98.79
2044.00,98.78
2043.00,98.77
2042.00,98.79
2041.00,98.77
2040.00,98.73
2039.00,98.69
2038.00,98.69
2037.00,98.68
2036.00,98.66
2035.00,98.69
2034.00,98.74
2033.00,98.78
2032.00,98.79
2031.00,98.80
2030.00,98.83
2029.00,98.84
2028.00,98.81
2027.00,98.80
2026.00,98.82
2025.00,98.84
2024.00,98.83
2023.00,98.84
2022.00,98.86
2021.00,98.87
2020.00,98.86
2019.00,98.87
2018.00,98.90
2017.00,98.91
2016.00,98.88
2015.00,98.85
2014.00,98.86
2013.00,98.85
2012.00,98.82
2011.00,98.81
2010.00,98.84
2009.00,98.87
2008.00,98.90
2007.00,98.98
2006.00,99.07
2005.00,99.11
2004.00,99.08
2003.00,99.05
2002.00,99.04
2001.00,99.01
2000.00,98.98
1999.00,98.96
1998.00,98.97
1997.00,98.97
1996.00,98.95
1995.00,98.94
1994.00,98.95
1993.00,98.93
1992.00,98.88
1991.00,98.86
1990.00,98.87
1989.00,98.86
1988.00,98.83
1987.00,98.81
1986.00,98.81
1985.00,98.80
1984.00,98.76
1983.00,98.71
1982.00,98.67
1981.00,98.62
1980.00,98.56
1979.00,98.58
1978.00,98.69
1977.00,98.83
1976.00,98.93
1975.00,99.01
1974.00,99.08
1973.00,99.11
1972.00,99.10
1971.00,99.10
1970.00,99.13
1969.00,99.16
1968.00,99.15
1967.00,99.16
1966.00,99.19
1965.00,99.19
1964.00,99.15
1963.00,99.15
1962.00,99.17
1961.00,99.19
1960.00,99.21
1959.00,99.24
1958.00,99.29
1957.00,99.30
1956.00,99.26
1955.00,99.23
1954.00,99.23
1953.00,99.23
1952.00,99.21
1951.00,99.21
1950.00,99.24
1949.00,99.25
1948.00,99.23
1947.00,99.23
1946.00,99.26
1945.00,99.27
1944.00,99.26
1943.00,99.26
1942.00,99.27
1941.00,99.27
1940.00,99.25
1939.00,99.25
1938.00,99.27
1937.00,99.27
1936.00,99.26
1935.00,99.26
1934.00,99.28
1933.00,99.29
1932.00,99.28
1931.00,99.28
1930.00,99.30
1929.00,99.30
1928.00,99.29
1927.00,99.29
1926.00,99.31
1925.00,99.31
1924.00,99.28
1923.00,99.27
1922.00,99.28
1921.00,99.27
1920.00,99.26
1919.00,99.25
1918.00,99.25
1917.00,99.25
1916.00,99.24
1915.00,99.23
1914.00,99.25
1913.00,99.25
1912.00,99.23
1911.00,99.22
1910.00,99.23
1909.00,99.23
1908.00,99.21
1907.00,99.20
1906.00,99.22
1905.00,99.23
1904.00,99.22
1903.00,99.23
1902.00,99.24
1901.00,99.25
1900.00,99.23
1899.00,99.22
1898.00,99.23
1897.00,99.23
1896.00,99.22
1895.00,99.21
1894.00,99.22
1893.00,99.22
1892.00,99.20
1891.00,99.19
1890.00,99.21
1889.00,99.22
1888.00,99.21
1887.00,99.22
1886.00,99.23
1885.00,99.24
1884.00,99.22
1883.00,99.21
1882.00,99.23
1881.00,99.23
1880.00,99.22
1879.00,99.21
1878.00,99.23
1877.00,99.23
1876.00,99.22
1875.00,99.22
1874.00,99.23
1873.00,99.23
1872.00,99.22
1871.00,99.21
1870.00,99.23
1869.00,99.23
1868.00,99.21
1867.00,99.20
1866.00,99.21
1865.00,99.22
1864.00,99.20
1863.00,99.20
1862.00,99.21
1861.00,99.21
1860.00,99.20
1859.00,99.20
1858.00,99.22
1857.00,99.22
1856.00,99.20
1855.00,99.19
1854.00,99.20
1853.00,99.20
1852.00,99.18
1851.00,99.17
1850.00,99.18
1849.00,99.18
1848.00,99.17
1847.00,99.16
1846.00,99.16
1845.00,99.16
1844.00,99.14
1843.00,99.13
1842.00,99.14
1841.00,99.14
1840.00,99.12
1839.00,99.11
1838.00,99.11
1837.00,99.11
1836.00,99.08
1835.00,99.07
1834.00,99.07
1833.00,99.06
1832.00,99.04
1831.00,99.03
1830.00,99.04
1829.00,99.04
1828.00,99.01
1827.00,99.00
1826.00,99.01
1825.00,99.00
1824.00,98.97
1823.00,98.96
1822.00,98.97
1821.00,98.97
1820.00,98.96
1819.00,98.97
1818.00,99.01
1817.00,99.02
1816.00,99.00
1815.00,98.98
1814.00,98.97
1813.00,98.94
1812.00,98.90
1811.00,98.88
1810.00,98.88
1809.00,98.87
1808.00,98.84
1807.00,98.82
1806.00,98.82
1805.00,98.81
1804.00,98.79
1803.00,98.77
1802.00,98.77
1801.00,98.76
1800.00,98.73
1799.00,98.71
1798.00,98.71
1797.00,98.70
1796.00,98.67
1795.00,98.65
1794.00,98.66
1793.00,98.65
1792.00,98.61
1791.00,98.59
1790.00,98.59
1789.00,98.58
1788.00,98.55
1787.00,98.53
1786.00,98.52
1785.00,98.50
1784.00,98.47
1783.00,98.44
1782.00,98.43
1781.00,98.41
1780.00,98.37
1779.00,98.35
1778.00,98.35
1777.00,98.34
1776.00,98.31
1775.00,98.28
1774.00,98.27
1773.00,98.25
1772.00,98.19
1771.00,98.16
1770.00,98.15
1769.00,98.13
1768.00,98.08
1767.00,98.04
1766.00,98.02
1765.00,97.99
1764.00,97.93
1763.00,97.88
1762.00,97.86
1761.00,97.83
1760.00,97.77
1759.00,97.72
1758.00,97.70
1757.00,97.65
1756.00,97.58
1755.00,97.52
1754.00,97.49
1753.00,97.44
1752.00,97.34
1751.00,97.26
1750.00,97.20
1749.00,97.12
1748.00,97.00
1747.00,96.89
1746.00,96.82
1745.00,96.72
1744.00,96.57
1743.00,96.43
1742.00,96.32
1741.00,96.16
1740.00,95.94
1739.00,95.72
1738.00,95.56
1737.00,95.38
1736.00,95.09
1735.00,94.66
1734.00,94.11
1733.00,93.50
1732.00,92.85
1731.00,92.15
1730.00,91.32
1729.00,90.35
1728.00,89.29
1727.00,88.23
1726.00,87.15
1725.00,85.98
1724.00,84.72
1723.00,83.52
1722.00,82.46
1721.00,81.47
1720.00,80.40
1719.00,79.12
1718.00,77.62
1717.00,76.05
1716.00,74.54
1715.00,73.13
1714.00,71.77
1713.00,70.38
1712.00,68.92
1711.00,67.40
1710.00,65.81
1709.00,64.19
1708.00,62.47
1707.00,60.58
1706.00,58.50
1705.00,56.52
1704.00,54.89
1703.00,53.52
1702.00,52.09
1701.00,50.37
1700.00,48.66
1699.00,47.34
1698.00,46.34
1697.00,45.35
1696.00,44.22
1695.00,43.04
1694.00,42.03
1693.00,41.31
1692.00,41.01
1691.00,41.37
1690.00,42.59
1689.00,44.54
1688.00,46.63
1687.00,48.57
1686.00,50.70
1685.00,53.89
1684.00,57.77
1683.00,60.73
1682.00,62.61
1681.00,64.27
1680.00,65.97
1679.00,67.53
1678.00,68.85
1677.00,70.12
1676.00,71.51
1675.00,72.85
1674.00,73.87
1673.00,74.65
1672.00,75.36
1671.00,76.06
1670.00,76.76
1669.00,77.45
1668.00,78.01
1667.00,78.36
1666.00,78.62
1665.00,78.97
1664.00,79.52
1663.00,80.25
1662.00,81.09
1661.00,81.96
1660.00,82.82
1659.00,83.63
1658.00,84.36
1657.00,85.01
1656.00,85.62
1655.00,86.21
1654.00,86.94
1653.00,87.84
1652.00,88.51
1651.00,88.83
1650.00,89.03
1649.00,89.28
1648.00,89.67
1647.00,90.09
1646.00,90.43
1645.00,90.73
1644.00,90.99
1643.00,91.22
1642.00,91.41
1641.00,91.64
1640.00,91.87
1639.00,92.07
1638.00,92.23
1637.00,92.45
1636.00,92.74
1635.00,92.99
1634.00,93.15
1633.00,93.30
1632.00,93.46
1631.00,93.61
1630.00,93.75
1629.00,93.92
1628.00,94.11
1627.00,94.28
1626.00,94.40
1625.00,94.54
1624.00,94.72
1623.00,94.89
1622.00,95.02
1621.00,95.14
1620.00,95.27
1619.00,95.38
1618.00,95.48
1617.00,95.63
1616.00,95.80
1615.00,95.92
1614.00,96.00
1613.00,96.09
1612.00,96.20
1611.00,96.31
1610.00,96.39
1609.00,96.48
1608.00,96.59
1607.00,96.68
1606.00,96.74
1605.00,96.81
1604.00,96.90
1603.00,96.98
1602.00,97.04
1601.00,97.10
1600.00,97.18
1599.00,97.23
1598.00,97.27
1597.00,97.31
1596.00,97.37
1595.00,97.42
1594.00,97.45
1593.00,97.49
1592.00,97.54
1591.00,97.57
1590.00,97.59
1589.00,97.62
1588.00,97.66
1587.00,97.69
1586.00,97.69
1585.00,97.71
1584.00,97.74
1583.00,97.76
1582.00,97.77
1581.00,97.78
1580.00,97.80
1579.00,97.81
1578.00,97.81
1577.00,97.82
1576.00,97.85
1575.00,97.87
1574.00,97.86
1573.00,97.86
1572.00,97.88
1571.00,97.88
1570.00,97.87
1569.00,97.88
1568.00,97.90
1567.00,97.91
1566.00,97.90
1565.00,97.91
1564.00,97.93
1563.00,97.94
1562.00,97.94
1561.00,97.95
1560.00,97.98
1559.00,97.99
1558.00,97.97
1557.00,97.97
1556.00,97.99
1555.00,97.99
1554.00,97.98
1553.00,97.99
1552.00,98.00
1551.00,98.01
1550.00,98.00
1549.00,98.01
1548.00,98.02
1547.00,98.03
1546.00,98.03
1545.00,98.03
1544.00,98.05
1543.00,98.05
1542.00,98.04
1541.00,98.06
1540.00,98.09
1539.00,98.09
1538.00,98.09
1537.00,98.08
1536.00,98.09
1535.00,98.10
1534.00,98.09
1533.00,98.10
1532.00,98.12
1531.00,98.12
1530.00,98.11
1529.00,98.12
1528.00,98.13
1527.00,98.13
1526.00,98.12
1525.00,98.12
1524.00,98.13
1523.00,98.12
1522.00,98.11
1521.00,98.12
1520.00,98.13
1519.00,98.13
1518.00,98.12
1517.00,98.12
1516.00,98.13
1515.00,98.13
1514.00,98.12
1513.00,98.12
1512.00,98.13
1511.00,98.12
1510.00,98.11
1509.00,98.10
1508.00,98.10
1507.00,98.09
1506.00,98.08
1505.00,98.08
1504.00,98.08
1503.00,98.06
1502.00,98.05
1501.00,98.05
1500.00,98.05
1499.00,98.04
1498.00,98.03
1497.00,98.02
1496.00,98.01
1495.00,97.99
1494.00,97.97
1493.00,97.96
1492.00,97.95
1491.00,97.92
1490.00,97.89
1489.00,97.86
1488.00,97.85
1487.00,97.82
1486.00,97.80
1485.00,97.77
1484.00,97.75
1483.00,97.71
1482.00,97.65
1481.00,97.60
1480.00,97.55
1479.00,97.49
1478.00,97.41
1477.00,97.33
1476.00,97.23
1475.00,97.12
1474.00,96.98
1473.00,96.82
1472.00,96.65
1471.00,96.49
1470.00,96.35
1469.00,96.21
1468.00,96.06
1467.00,95.88
1466.00,95.68
1465.00,95.45
1464.00,95.24
1463.00,95.06
1462.00,94.92
1461.00,94.81
1460.00,94.72
1459.00,94.65
1458.00,94.64
1457.00,94.69
1456.00,94.78
1455.00,94.85
1454.00,94.91
1453.00,94.98
1452.00,95.05
1451.00,95.09
1450.00,95.11
1449.00,95.10
1448.00,95.06
1447.00,94.98
1446.00,94.88
1445.00,94.77
1444.00,94.62
1443.00,94.45
1442.00,94.25
1441.00,94.05
1440.00,93.83
1439.00,93.57
1438.00,93.25
1437.00,92.82
1436.00,92.34
1435.00,91.86
1434.00,91.41
1433.00,90.93
1432.00,90.35
1431.00,89.68
1430.00,88.94
1429.00,88.17
1428.00,87.39
1427.00,86.62
1426.00,85.77
1425.00,84.72
1424.00,83.50
1423.00,82.24
1422.00,80.98
1421.00,79.48
1420.00,77.48
1419.00,75.08
1418.00,72.73
1417.00,70.71
1416.00,68.96
1415.00,67.42
1414.00,66.04
1413.00,64.77
1412.00,63.69
1411.00,62.88
1410.00,62.35
1409.00,62.10
1408.00,62.20
1407.00,62.72
1406.00,63.60
1405.00,64.68
1404.00,65.79
1403.00,66.80
1402.00,67.67
1401.00,68.44
1400.00,69.24
1399.00,70.10
1398.00,70.87
1397.00,71.54
1396.00,72.23
1395.00,73.07
1394.00,73.95
1393.00,74.79
1392.00,75.60
1391.00,76.42
1390.00,77.22
1389.00,77.99
1388.00,78.73
1387.00,79.36
1386.00,79.80
1385.00,80.03
1384.00,80.13
1383.00,80.15
1382.00,80.11
1381.00,79.99
1380.00,79.86
1379.00,79.73
1378.00,79.60
1377.00,79.46
1376.00,79.33
1375.00,79.21
1374.00,79.08
1373.00,78.95
1372.00,78.81
1371.00,78.68
1370.00,78.52
1369.00,78.32
1368.00,78.10
1367.00,77.88
1366.00,77.64
1365.00,77.36
1364.00,77.04
1363.00,76.69
1362.00,76.32
1361.00,75.95
1360.00,75.59
1359.00,75.25
1358.00,74.93
1357.00,74.63
1356.00,74.37
1355.00,74.17
1354.00,74.05
1353.00,73.98
1352.00,73.98
1351.00,74.03
1350.00,74.10
1349.00,74.13
1348.00,74.11
1347.00,73.99
1346.00,73.75
1345.00,73.36
1344.00,72.83
1343.00,72.18
1342.00,71.41
1341.00,70.48
1340.00,69.43
1339.00,68.35
1338.00,67.30
1337.00,66.33
1336.00,65.43
1335.00,64.63
1334.00,63.93
1333.00,63.35
1332.00,62.91
1331.00,62.63
1330.00,62.53
1329.00,62.58
1328.00,62.79
1327.00,63.14
1326.00,63.63
1325.00,64.21
1324.00,64.87
1323.00,65.60
1322.00,66.36
1321.00,67.14
1320.00,67.95
1319.00,68.78
1318.00,69.59
1317.00,70.37
1316.00,71.12
1315.00,71.86
1314.00,72.57
1313.00,73.26
1312.00,73.91
1311.00,74.53
1310.00,75.12
1309.00,75.66
1308.00,76.17
1307.00,76.66
1306.00,77.11
1305.00,77.51
1304.00,77.90
1303.00,78.26
1302.00,78.58
1301.00,78.88
1300.00,79.16
1299.00,79.41
1298.00,79.65
1297.00,79.86
1296.00,80.06
1295.00,80.25
1294.00,80.43
1293.00,80.59
1292.00,80.75
1291.00,80.91
1290.00,81.07
1289.00,81.22
1288.00,81.37
1287.00,81.53
1286.00,81.68
1285.00,81.82
1284.00,81.96
1283.00,82.10
1282.00,82.22
1281.00,82.32
1280.00,82.42
1279.00,82.51
1278.00,82.57
1277.00,82.63
1276.00,82.68
1275.00,82.73
1274.00,82.76
1273.00,82.77
1272.00,82.78
1271.00,82.77
1270.00,82.75
1269.00,82.70
1268.00,82.64
1267.00,82.58
1266.00,82.49
1265.00,82.38
1264.00,82.26
1263.00,82.15
1262.00,82.04
1261.00,81.94
1260.00,81.88
1259.00,81.87
1258.00,81.92
1257.00,82.02
1256.00,82.20
1255.00,82.43
1254.00,82.70
1253.00,82.98
1252.00,83.29
1251.00,83.61
1250.00,83.92
1249.00,84.22
1248.00,84.52
1247.00,84.81
1246.00,85.08
1245.00,85.33
1244.00,85.58
1243.00,85.81
1242.00,86.03
1241.00,86.24
1240.00,86.44
1239.00,86.64
1238.00,86.81
1237.00,86.98
1236.00,87.14
1235.00,87.30
1234.00,87.44
1233.00,87.58
1232.00,87.74
1231.00,87.90
1230.00,88.06
1229.00,88.23
1228.00,88.40
1227.00,88.59
1226.00,88.76
1225.00,88.93
1224.00,89.11
1223.00,89.30
1222.00,89.46
1221.00,89.60
1220.00,89.74
1219.00,89.85
1218.00,89.94
1217.00,90.01
1216.00,90.08
1215.00,90.13
1214.00,90.19
1213.00,90.25
1212.00,90.32
1211.00,90.40
1210.00,90.47
1209.00,90.55
1208.00,90.64
1207.00,90.72
1206.00,90.79
1205.00,90.85
1204.00,90.90
1203.00,90.96
1202.00,91.00
1201.00,91.04
1200.00,91.10
1199.00,91.15
1198.00,91.19
1197.00,91.24
1196.00,91.30
1195.00,91.36
1194.00,91.42
1193.00,91.49
1192.00,91.56
1191.00,91.63
1190.00,91.69
1189.00,91.75
1188.00,91.82
1187.00,91.89
1186.00,91.94
1185.00,91.98
1184.00,92.03
1183.00,92.08
1182.00,92.12
1181.00,92.16
1180.00,92.21
1179.00,92.26
1178.00,92.29
1177.00,92.33
1176.00,92.38
1175.00,92.43
1174.00,92.48
1173.00,92.53
1172.00,92.59
1171.00,92.66
1170.00,92.71
1169.00,92.75
1168.00,92.79
1167.00,92.84
1166.00,92.87
1165.00,92.89
1164.00,92.93
1163.00,92.96
1162.00,92.98
1161.00,92.99
1160.00,93.00
1159.00,93.02
1158.00,93.04
1157.00,93.06
1156.00,93.09
1155.00,93.12
1154.00,93.13
1153.00,93.15
1152.00,93.17
1151.00,93.20
1150.00,93.21
1149.00,93.22
1148.00,93.24
1147.00,93.26
1146.00,93.26
1145.00,93.25
1144.00,93.25
1143.00,93.24
1142.00,93.21
1141.00,93.18
1140.00,93.14
1139.00,93.10
1138.00,93.05
1137.00,93.00
1136.00,92.95
1135.00,92.91
1134.00,92.85
1133.00,92.80
1132.00,92.76
1131.00,92.73
1130.00,92.69
1129.00,92.65
1128.00,92.61
1127.00,92.57
1126.00,92.50
1125.00,92.41
1124.00,92.31
1123.00,92.21
1122.00,92.09
1121.00,91.95
1120.00,91.82
1119.00,91.69
1118.00,91.54
1117.00,91.38
1116.00,91.23
1115.00,91.08
1114.00,90.93
1113.00,90.77
1112.00,90.62
1111.00,90.47
1110.00,90.30
1109.00,90.12
1108.00,89.93
1107.00,89.75
1106.00,89.54
1105.00,89.32
1104.00,89.09
1103.00,88.86
1102.00,88.61
1101.00,88.34
1100.00,88.08
1099.00,87.81
1098.00,87.53
1097.00,87.23
1096.00,86.92
1095.00,86.61
1094.00,86.28
1093.00,85.95
1092.00,85.62
1091.00,85.29
1090.00,84.95
1089.00,84.60
1088.00,84.24
1087.00,83.88
1086.00,83.50
1085.00,83.10
1084.00,82.68
1083.00,82.24
1082.00,81.78
1081.00,81.29
1080.00,80.79
1079.00,80.28
1078.00,79.74
1077.00,79.19
1076.00,78.63
1075.00,78.06
1074.00,77.47
1073.00,76.85
1072.00,76.22
1071.00,75.58
1070.00,74.92
1069.00,74.24
1068.00,73.54
1067.00,72.81
1066.00,72.00
1065.00,71.07
1064.00,69.98
1063.00,68.72
1062.00,67.25
1061.00,65.59
1060.00,63.82
1059.00,62.05
1058.00,60.41
1057.00,59.02
1056.00,57.96
1055.00,57.33
1054.00,57.13
1053.00,57.35
1052.00,57.95
1051.00,58.88
1050.00,60.06
1049.00,61.38
1048.00,62.77
1047.00,64.18
1046.00,65.57
1045.00,66.89
1044.00,68.16
1043.00,69.36
1042.00,70.48
1041.00,71.53
1040.00,72.52
1039.00,73.46
1038.00,74.35
1037.00,75.18
1036.00,75.97
1035.00,76.72
1034.00,77.44
1033.00,78.11
1032.00,78.75
1031.00,79.36
1030.00,79.94
1029.00,80.48
1028.00,81.00
1027.00,81.50
1026.00,81.98
1025.00,82.44
1024.00,82.87
1023.00,83.28
1022.00,83.65
1021.00,84.00
1020.00,84.33
1019.00,84.66
1018.00,84.96
1017.00,85.24
1016.00,85.51
1015.00,85.77
1014.00,86.01
1013.00,86.24
1012.00,86.47
1011.00,86.67
1010.00,86.86
1009.00,87.04
1008.00,87.21
1007.00,87.37
1006.00,87.51
1005.00,87.64
1004.00,87.77
1003.00,87.90
1002.00,88.02
1001.00,88.13
1000.00,88.25
999.00,88.36
998.00,88.46
997.00,88.56
996.00,88.67
995.00,88.78
994.00,88.87
993.00,88.96
992.00,89.06
991.00,89.15
990.00,89.24
989.00,89.33
988.00,89.42
987.00,89.51
986.00,89.59
985.00,89.66
984.00,89.74
983.00,89.82
982.00,89.91
981.00,90.00
980.00,90.09
979.00,90.20
978.00,90.30
977.00,90.40
976.00,90.51
975.00,90.61
974.00,90.70
973.00,90.79
972.00,90.89
971.00,90.99
970.00,91.09
969.00,91.19
968.00,91.28
967.00,91.38
966.00,91.47
965.00,91.56
964.00,91.67
963.00,91.78
962.00,91.90
961.00,92.01
960.00,92.12
959.00,92.24
958.00,92.34
957.00,92.45
956.00,92.56
955.00,92.66
954.00,92.76
953.00,92.85
952.00,92.94
951.00,93.03
950.00,93.11
949.00,93.19
948.00,93.28
947.00,93.36
946.00,93.43
945.00,93.48
944.00,93.54
943.00,93.60
942.00,93.64
941.00,93.69
940.00,93.74
939.00,93.79
938.00,93.83
937.00,93.86
936.00,93.89
935.00,93.92
934.00,93.94
933.00,93.97
932.00,94.00
931.00,94.02
930.00,94.03
929.00,94.04
928.00,94.06
927.00,94.08
926.00,94.09
925.00,94.10
924.00,94.12
923.00,94.14
922.00,94.14
921.00,94.16
920.00,94.17
919.00,94.18
918.00,94.18
917.00,94.18
916.00,94.19
915.00,94.21
914.00,94.22
913.00,94.23
912.00,94.25
911.00,94.27
910.00,94.28
909.00,94.28
908.00,94.30
907.00,94.33
906.00,94.35
905.00,94.37
904.00,94.40
903.00,94.44
902.00,94.46
901.00,94.49
900.00,94.53
899.00,94.56
898.00,94.59
897.00,94.61
896.00,94.63
895.00,94.66
894.00,94.69
893.00,94.71
892.00,94.74
891.00,94.78
890.00,94.81
889.00,94.85
888.00,94.89
887.00,94.93
886.00,94.95
885.00,94.98
884.00,95.02
883.00,95.05
882.00,95.08
881.00,95.09
880.00,95.11
879.00,95.13
878.00,95.14
877.00,95.15
876.00,95.16
875.00,95.17
874.00,95.16
873.00,95.16
872.00,95.18
871.00,95.20
870.00,95.20
869.00,95.20
868.00,95.21
867.00,95.22
866.00,95.22
865.00,95.20
864.00,95.19
863.00,95.19
862.00,95.19
861.00,95.19
860.00,95.20
859.00,95.20
858.00,95.18
857.00,95.16
856.00,95.14
855.00,95.13
854.00,95.10
853.00,95.09
852.00,95.08
851.00,95.07
850.00,95.04
849.00,94.99
848.00,94.96
847.00,94.92
846.00,94.86
845.00,94.80
844.00,94.74
843.00,94.68
842.00,94.61
841.00,94.54
840.00,94.46
839.00,94.36
838.00,94.25
837.00,94.15
836.00,94.05
835.00,93.95
834.00,93.84
833.00,93.72
832.00,93.61
831.00,93.52
830.00,93.43
829.00,93.35
828.00,93.29
827.00,93.25
826.00,93.19
825.00,93.13
824.00,93.06
823.00,92.96
822.00,92.82
821.00,92.64
820.00,92.43
819.00,92.17
818.00,91.86
817.00,91.49
816.00,91.06
815.00,90.55
814.00,89.95
813.00,89.29
812.00,88.57
811.00,87.79
810.00,86.97
809.00,86.12
808.00,85.28
807.00,84.52
806.00,83.88
805.00,83.46
804.00,83.30
803.00,83.40
802.00,83.74
801.00,84.25
800.00,84.87
799.00,85.56
798.00,86.26
797.00,86.95
796.00,87.61
795.00,88.23
794.00,88.79
793.00,89.30
792.00,89.77
791.00,90.21
790.00,90.61
789.00,90.98
788.00,91.32
787.00,91.64
786.00,91.93
785.00,92.20
784.00,92.48
783.00,92.73
782.00,92.95
781.00,93.15
780.00,93.35
779.00,93.53
778.00,93.69
777.00,93.85
776.00,94.00
775.00,94.15
774.00,94.29
773.00,94.42
772.00,94.56
771.00,94.67
770.00,94.76
769.00,94.85
768.00,94.95
767.00,95.05
766.00,95.15
765.00,95.24
764.00,95.33
763.00,95.41
762.00,95.48
761.00,95.55
760.00,95.61
759.00,95.67
758.00,95.72
757.00,95.76
756.00,95.81
755.00,95.86
754.00,95.91
753.00,95.95
752.00,96.01
751.00,96.05
750.00,96.09
749.00,96.12
748.00,96.16
747.00,96.20
746.00,96.22
745.00,96.24
744.00,96.27
743.00,96.30
742.00,96.32
741.00,96.35
740.00,96.38
739.00,96.41
738.00,96.42
737.00,96.43
736.00,96.46
735.00,96.49
734.00,96.50
733.00,96.50
732.00,96.50
731.00,96.51
730.00,96.51
729.00,96.51
728.00,96.53
727.00,96.55
726.00,96.55
725.00,96.56
724.00,96.57
723.00,96.58
722.00,96.58
721.00,96.58
720.00,96.59
719.00,96.60
718.00,96.60
717.00,96.62
716.00,96.65
715.00,96.69
714.00,96.72
713.00,96.74
712.00,96.77
711.00,96.78
710.00,96.77
709.00,96.76
708.00,96.76
707.00,96.78
706.00,96.79
705.00,96.80
704.00,96.81
703.00,96.82
702.00,96.82
701.00,96.83
700.00,96.87
699.00,96.89
698.00,96.89
697.00,96.89
696.00,96.89
695.00,96.89
694.00,96.88
693.00,96.86
692.00,96.85
691.00,96.84
690.00,96.82
689.00,96.81
688.00,96.83
687.00,96.85
686.00,96.85
685.00,96.85
684.00,96.85
683.00,96.83
682.00,96.78
681.00,96.73
680.00,96.70
679.00,96.69
678.00,96.65
677.00,96.62
676.00,96.59
675.00,96.56
674.00,96.49
673.00,96.43
672.00,96.41
671.00,96.40
670.00,96.35
669.00,96.27
668.00,96.17
667.00,96.08
666.00,96.05
665.00,96.05
664.00,96.08
663.00,96.09
662.00,96.07
661.00,96.05
660.00,96.08
659.00,96.11
658.00,96.11
657.00,96.07
656.00,96.02
655.00,95.94
654.00,95.87
653.00,95.81
652.00,95.79
651.00,95.79
650.00,95.78
