Created as New Dataset,Acrylic Green
cm-1,%T
4000.00,99.02
3999.00,99.03
3998.00,99.03
3997.00,99.03
3996.00,99.04
3995.00,99.04
3994.00,99.04
3993.00,99.03
3992.00,99.03
3991.00,99.03
3990.00,99.03
3989.00,99.03
3988.00,99.03
3987.00,99.03
3986.00,99.03
3985.00,99.03
3984.00,99.03
3983.00,99.03
3982.00,99.03
3981.00,99.03
3980.00,99.03
3979.00,99.03
3978.00,99.03
3977.00,99.03
3976.00,99.04
3975.00,99.04
3974.00,99.04
3973.00,99.03
3972.00,99.03
3971.00,99.03
3970.00,99.03
3969.00,99.03
3968.00,99.03
3967.00,99.03
3966.00,99.03
3965.00,99.03
3964.00,99.04
3963.00,99.04
3962.00,99.04
3961.00,99.04
3960.00,99.04
3959.00,99.04
3958.00,99.03
3957.00,99.03
3956.00,99.03
3955.00,99.03
3954.00,99.03
3953.00,99.03
3952.00,99.03
3951.00,99.03
3950.00,99.03
3949.00,99.03
3948.00,99.03
3947.00,99.03
3946.00,99.02
3945.00,99.02
3944.00,99.02
3943.00,99.02
3942.00,99.02
3941.00,99.02
3940.00,99.02
3939.00,99.02
3938.00,99.02
3937.00,99.02
3936.00,99.02
3935.00,99.02
3934.00,99.02
3933.00,99.02
3932.00,99.02
3931.00,99.02
3930.00,99.01
3929.00,99.01
3928.00,99.01
3927.00,99.01
3926.00,99.02
3925.00,99.02
3924.00,99.02
3923.00,99.02
3922.00,99.02
3921.00,99.03
3920.00,99.03
3919.00,99.03
3918.00,99.03
3917.00,99.03
3916.00,99.03
3915.00,99.03
3914.00,99.03
3913.00,99.03
3912.00,99.03
3911.00,99.03
3910.00,99.03
3909.00,99.02
3908.00,99.02
3907.00,99.02
3906.00,99.02
3905.00,99.01
3904.00,99.01
3903.00,99.00
3902.00,99.00
3901.00,99.00
3900.00,99.01
3899.00,99.01
3898.00,99.01
3897.00,99.01
3896.00,99.01
3895.00,99.01
3894.00,99.01
3893.00,99.01
3892.00,99.01
3891.00,99.02
3890.00,99.02
3889.00,99.02
3888.00,99.02
3887.00,99.02
3886.00,99.02
3885.00,99.01
3884.00,99.01
3883.00,99.01
3882.00,99.02
3881.00,99.02
3880.00,99.02
3879.00,99.01
3878.00,99.01
3877.00,99.01
3876.00,99.01
3875.00,99.01
3874.00,99.01
3873.00,99.00
3872.00,98.99
3871.00,98.99
3870.00,98.99
3869.00,98.99
3868.00,98.99
3867.00,99.00
3866.00,99.00
3865.00,99.00
3864.00,99.00
3863.00,99.01
3862.00,99.01
3861.00,99.01
3860.00,99.01
3859.00,99.01
3858.00,99.00
3857.00,99.00
3856.00,99.00
3855.00,99.00
3854.00,99.00
3853.00,99.00
3852.00,99.00
3851.00,99.00
3850.00,99.00
3849.00,99.00
3848.00,99.00
3847.00,99.00
3846.00,99.00
3845.00,99.00
3844.00,99.00
3843.00,98.99
3842.00,98.99
3841.00,98.99
3840.00,98.99
3839.00,98.99
3838.00,98.99
3837.00,98.99
3836.00,98.99
3835.00,98.99
3834.00,99.00
3833.00,99.00
3832.00,99.00
3831.00,99.00
3830.00,98.99
3829.00,98.99
3828.00,98.99
3827.00,98.99
3826.00,98.99
3825.00,98.98
3824.00,98.98
3823.00,98.98
3822.00,98.98
3821.00,98.98
3820.00,98.98
3819.00,98.98
3818.00,98.98
3817.00,98.98
3816.00,98.99
3815.00,98.99
3814.00,98.98
3813.00,98.99
3812.00,98.99
3811.00,98.99
3810.00,98.99
3809.00,98.99
3808.00,98.99
3807.00,98.99
3806.00,98.99
3805.00,98.98
3804.00,98.97
3803.00,98.97
3802.00,98.97
3801.00,98.97
3800.00,98.96
3799.00,98.96
3798.00,98.97
3797.00,98.97
3796.00,98.98
3795.00,98.98
3794.00,98.99
3793.00,98.99
3792.00,98.99
3791.00,98.99
3790.00,98.99
3789.00,98.99
3788.00,98.98
3787.00,98.98
3786.00,98.98
3785.00,98.98
3784.00,98.98
3783.00,98.98
3782.00,98.98
3781.00,98.98
3780.00,98.98
3779.00,98.98
3778.00,98.98
3777.00,98.98
3776.00,98.98
3775.00,98.98
3774.00,98.98
3773.00,98.97
3772.00,98.97
3771.00,98.98
3770.00,98.98
3769.00,98.98
3768.00,98.97
3767.00,98.97
3766.00,98.96
3765.00,98.96
3764.00,98.95
3763.00,98.95
3762.00,98.95
3761.00,98.95
3760.00,98.95
3759.00,98.96
3758.00,98.96
3757.00,98.96
3756.00,98.95
3755.00,98.95
3754.00,98.94
3753.00,98.94
3752.00,98.94
3751.00,98.94
3750.00,98.93
3749.00,98.93
3748.00,98.92
3747.00,98.92
3746.00,98.93
3745.00,98.94
3744.00,98.94
3743.00,98.94
3742.00,98.94
3741.00,98.94
3740.00,98.94
3739.00,98.94
3738.00,98.94
3737.00,98.95
3736.00,98.95
3735.00,98.95
3734.00,98.95
3733.00,98.95
3732.00,98.96
3731.00,98.96
3730.00,98.97
3729.00,98.97
3728.00,98.97
3727.00,98.97
3726.00,98.98
3725.00,98.98
3724.00,98.98
3723.00,98.98
3722.00,98.98
3721.00,98.98
3720.00,98.97
3719.00,98.97
3718.00,98.96
3717.00,98.96
3716.00,98.95
3715.00,98.94
3714.00,98.94
3713.00,98.94
3712.00,98.95
3711.00,98.96
3710.00,98.96
3709.00,98.96
3708.00,98.96
3707.00,98.96
3706.00,98.97
3705.00,98.97
3704.00,98.97
3703.00,98.97
3702.00,98.97
3701.00,98.97
3700.00,98.97
3699.00,98.97
3698.00,98.97
3697.00,98.96
3696.00,98.96
3695.00,98.95
3694.00,98.95
3693.00,98.94
3692.00,98.94
3691.00,98.94
3690.00,98.93
3689.00,98.93
3688.00,98.92
3687.00,98.91
3686.00,98.90
3685.00,98.90
3684.00,98.89
3683.00,98.89
3682.00,98.88
3681.00,98.88
3680.00,98.88
3679.00,98.87
3678.00,98.87
3677.00,98.86
3676.00,98.85
3675.00,98.85
3674.00,98.84
3673.00,98.83
3672.00,98.83
3671.00,98.82
3670.00,98.82
3669.00,98.81
3668.00,98.81
3667.00,98.81
3666.00,98.81
3665.00,98.81
3664.00,98.80
3663.00,98.80
3662.00,98.80
3661.00,98.79
3660.00,98.79
3659.00,98.79
3658.00,98.79
3657.00,98.78
3656.00,98.77
3655.00,98.76
3654.00,98.75
3653.00,98.74
3652.00,98.73
3651.00,98.72
3650.00,98.71
3649.00,98.71
3648.00,98.70
3647.00,98.70
3646.00,98.71
3645.00,98.71
3644.00,98.71
3643.00,98.71
3642.00,98.71
3641.00,98.71
3640.00,98.71
3639.00,98.71
3638.00,98.70
3637.00,98.70
3636.00,98.69
3635.00,98.69
3634.00,98.68
3633.00,98.68
3632.00,98.68
3631.00,98.68
3630.00,98.68
3629.00,98.68
3628.00,98.68
3627.00,98.68
3626.00,98.68
3625.00,98.69
3624.00,98.69
3623.00,98.69
3622.00,98.69
3621.00,98.69
3620.00,98.69
3619.00,98.69
3618.00,98.68
3617.00,98.68
3616.00,98.68
3615.00,98.68
3614.00,98.68
3613.00,98.68
3612.00,98.68
3611.00,98.68
3610.00,98.69
3609.00,98.69
3608.00,98.70
3607.00,98.70
3606.00,98.71
3605.00,98.72
3604.00,98.72
3603.00,98.73
3602.00,98.73
3601.00,98.74
3600.00,98.74
3599.00,98.74
3598.00,98.75
3597.00,98.75
3596.00,98.76
3595.00,98.76
3594.00,98.76
3593.00,98.76
3592.00,98.77
3591.00,98.77
3590.00,98.77
3589.00,98.77
3588.00,98.78
3587.00,98.79
3586.00,98.80
3585.00,98.80
3584.00,98.81
3583.00,98.80
3582.00,98.80
3581.00,98.80
3580.00,98.80
3579.00,98.80
3578.00,98.80
3577.00,98.80
3576.00,98.80
3575.00,98.80
3574.00,98.80
3573.00,98.80
3572.00,98.80
3571.00,98.79
3570.00,98.78
3569.00,98.78
3568.00,98.77
3567.00,98.77
3566.00,98.76
3565.00,98.76
3564.00,98.76
3563.00,98.76
3562.00,98.76
3561.00,98.76
3560.00,98.76
3559.00,98.76
3558.00,98.75
3557.00,98.75
3556.00,98.75
3555.00,98.75
3554.00,98.76
3553.00,98.76
3552.00,98.75
3551.00,98.75
3550.00,98.74
3549.00,98.74
3548.00,98.74
3547.00,98.74
3546.00,98.75
3545.00,98.75
3544.00,98.75
3543.00,98.76
3542.00,98.76
3541.00,98.76
3540.00,98.77
3539.00,98.77
3538.00,98.77
3537.00,98.77
3536.00,98.77
3535.00,98.78
3534.00,98.79
3533.00,98.79
3532.00,98.80
3531.00,98.80
3530.00,98.80
3529.00,98.80
3528.00,98.80
3527.00,98.80
3526.00,98.80
3525.00,98.80
3524.00,98.81
3523.00,98.81
3522.00,98.82
3521.00,98.82
3520.00,98.82
3519.00,98.83
3518.00,98.83
3517.00,98.83
3516.00,98.83
3515.00,98.83
3514.00,98.83
3513.00,98.83
3512.00,98.83
3511.00,98.83
3510.00,98.84
3509.00,98.84
3508.00,98.84
3507.00,98.84
3506.00,98.85
3505.00,98.85
3504.00,98.85
3503.00,98.85
3502.00,98.84
3501.00,98.84
3500.00,98.84
3499.00,98.85
3498.00,98.85
3497.00,98.85
3496.00,98.85
3495.00,98.85
3494.00,98.85
3493.00,98.85
3492.00,98.84
3491.00,98.84
3490.00,98.84
3489.00,98.84
3488.00,98.85
3487.00,98.85
3486.00,98.84
3485.00,98.84
3484.00,98.84
3483.00,98.83
3482.00,98.83
3481.00,98.84
3480.00,98.84
3479.00,98.83
3478.00,98.83
3477.00,98.83
3476.00,98.83
3475.00,98.82
3474.00,98.82
3473.00,98.82
3472.00,98.82
3471.00,98.82
3470.00,98.83
3469.00,98.83
3468.00,98.83
3467.00,98.82
3466.00,98.81
3465.00,98.80
3464.00,98.79
3463.00,98.78
3462.00,98.77
3461.00,98.77
3460.00,98.76
3459.00,98.76
3458.00,98.75
3457.00,98.74
3456.00,98.73
3455.00,98.73
3454.00,98.72
3453.00,98.72
3452.00,98.71
3451.00,98.71
3450.00,98.71
3449.00,98.70
3448.00,98.70
3447.00,98.69
3446.00,98.69
3445.00,98.68
3444.00,98.68
3443.00,98.68
3442.00,98.68
3441.00,98.69
3440.00,98.70
3439.00,98.70
3438.00,98.71
3437.00,98.72
3436.00,98.73
3435.00,98.73
3434.00,98.73
3433.00,98.73
3432.00,98.73
3431.00,98.74
3430.00,98.74
3429.00,98.74
3428.00,98.74
3427.00,98.74
3426.00,98.75
3425.00,98.75
3424.00,98.76
3423.00,98.78
3422.00,98.79
3421.00,98.80
3420.00,98.81
3419.00,98.81
3418.00,98.81
3417.00,98.81
3416.00,98.82
3415.00,98.83
3414.00,98.84
3413.00,98.84
3412.00,98.85
3411.00,98.86
3410.00,98.87
3409.00,98.87
3408.00,98.87
3407.00,98.88
3406.00,98.88
3405.00,98.89
3404.00,98.89
3403.00,98.90
3402.00,98.90
3401.00,98.90
3400.00,98.90
3399.00,98.90
3398.00,98.90
3397.00,98.90
3396.00,98.90
3395.00,98.91
3394.00,98.91
3393.00,98.91
3392.00,98.92
3391.00,98.92
3390.00,98.92
3389.00,98.92
3388.00,98.92
3387.00,98.92
3386.00,98.92
3385.00,98.92
3384.00,98.93
3383.00,98.93
3382.00,98.93
3381.00,98.93
3380.00,98.92
3379.00,98.92
3378.00,98.92
3377.00,98.92
3376.00,98.92
3375.00,98.92
3374.00,98.93
3373.00,98.93
3372.00,98.94
3371.00,98.94
3370.00,98.94
3369.00,98.94
3368.00,98.94
3367.00,98.93
3366.00,98.93
3365.00,98.93
3364.00,98.93
3363.00,98.93
3362.00,98.93
3361.00,98.93
3360.00,98.94
3359.00,98.94
3358.00,98.94
3357.00,98.93
3356.00,98.93
3355.00,98.93
3354.00,98.93
3353.00,98.93
3352.00,98.94
3351.00,98.94
3350.00,98.93
3349.00,98.93
3348.00,98.93
3347.00,98.93
3346.00,98.93
3345.00,98.94
3344.00,98.94
3343.00,98.94
3342.00,98.94
3341.00,98.95
3340.00,98.95
3339.00,98.95
3338.00,98.94
3337.00,98.94
3336.00,98.94
3335.00,98.94
3334.00,98.94
3333.00,98.95
3332.00,98.95
3331.00,98.95
3330.00,98.95
3329.00,98.94
3328.00,98.94
3327.00,98.94
3326.00,98.94
3325.00,98.94
3324.00,98.94
3323.00,98.95
3322.00,98.95
3321.00,98.94
3320.00,98.94
3319.00,98.94
3318.00,98.94
3317.00,98.94
3316.00,98.94
3315.00,98.94
3314.00,98.94
3313.00,98.94
3312.00,98.95
3311.00,98.95
3310.00,98.95
3309.00,98.95
3308.00,98.95
3307.00,98.95
3306.00,98.95
3305.00,98.94
3304.00,98.94
3303.00,98.94
3302.00,98.94
3301.00,98.94
3300.00,98.94
3299.00,98.94
3298.00,98.94
3297.00,98.94
3296.00,98.94
3295.00,98.94
3294.00,98.94
3293.00,98.94
3292.00,98.94
3291.00,98.94
3290.00,98.94
3289.00,98.93
3288.00,98.93
3287.00,98.93
3286.00,98.93
3285.00,98.94
3284.00,98.94
3283.00,98.94
3282.00,98.94
3281.00,98.94
3280.00,98.94
3279.00,98.94
3278.00,98.94
3277.00,98.94
3276.00,98.94
3275.00,98.94
3274.00,98.94
3273.00,98.94
3272.00,98.94
3271.00,98.94
3270.00,98.94
3269.00,98.94
3268.00,98.94
3267.00,98.94
3266.00,98.94
3265.00,98.94
3264.00,98.94
3263.00,98.94
3262.00,98.94
3261.00,98.94
3260.00,98.94
3259.00,98.94
3258.00,98.94
3257.00,98.94
3256.00,98.94
3255.00,98.94
3254.00,98.93
3253.00,98.93
3252.00,98.93
3251.00,98.94
3250.00,98.94
3249.00,98.95
3248.00,98.95
3247.00,98.94
3246.00,98.94
3245.00,98.94
3244.00,98.94
3243.00,98.94
3242.00,98.94
3241.00,98.94
3240.00,98.94
3239.00,98.94
3238.00,98.94
3237.00,98.93
3236.00,98.93
3235.00,98.94
3234.00,98.94
3233.00,98.94
3232.00,98.94
3231.00,98.93
3230.00,98.93
3229.00,98.93
3228.00,98.94
3227.00,98.94
3226.00,98.94
3225.00,98.94
3224.00,98.94
3223.00,98.94
3222.00,98.94
3221.00,98.94
3220.00,98.94
3219.00,98.94
3218.00,98.94
3217.00,98.93
3216.00,98.93
3215.00,98.93
3214.00,98.94
3213.00,98.94
3212.00,98.94
3211.00,98.94
3210.00,98.94
3209.00,98.94
3208.00,98.93
3207.00,98.93
3206.00,98.93
3205.00,98.93
3204.00,98.93
3203.00,98.93
3202.00,98.93
3201.00,98.93
3200.00,98.93
3199.00,98.93
3198.00,98.93
3197.00,98.93
3196.00,98.93
3195.00,98.93
3194.00,98.93
3193.00,98.92
3192.00,98.92
3191.00,98.92
3190.00,98.92
3189.00,98.92
3188.00,98.92
3187.00,98.92
3186.00,98.92
3185.00,98.92
3184.00,98.92
3183.00,98.92
3182.00,98.91
3181.00,98.92
3180.00,98.92
3179.00,98.92
3178.00,98.92
3177.00,98.91
3176.00,98.91
3175.00,98.91
3174.00,98.91
3173.00,98.91
3172.00,98.92
3171.00,98.91
3170.00,98.91
3169.00,98.91
3168.00,98.91
3167.00,98.91
3166.00,98.91
3165.00,98.91
3164.00,98.90
3163.00,98.90
3162.00,98.91
3161.00,98.91
3160.00,98.91
3159.00,98.91
3158.00,98.91
3157.00,98.91
3156.00,98.91
3155.00,98.91
3154.00,98.91
3153.00,98.91
3152.00,98.91
3151.00,98.91
3150.00,98.91
3149.00,98.91
3148.00,98.91
3147.00,98.91
3146.00,98.91
3145.00,98.91
3144.00,98.91
3143.00,98.91
3142.00,98.91
3141.00,98.91
3140.00,98.90
3139.00,98.90
3138.00,98.90
3137.00,98.90
3136.00,98.90
3135.00,98.90
3134.00,98.90
3133.00,98.90
3132.00,98.90
3131.00,98.90
3130.00,98.90
3129.00,98.90
3128.00,98.90
3127.00,98.90
3126.00,98.90
3125.00,98.90
3124.00,98.90
3123.00,98.90
3122.00,98.90
3121.00,98.90
3120.00,98.90
3119.00,98.90
3118.00,98.90
3117.00,98.90
3116.00,98.90
3115.00,98.89
3114.00,98.89
3113.00,98.89
3112.00,98.89
3111.00,98.89
3110.00,98.88
3109.00,98.89
3108.00,98.89
3107.00,98.89
3106.00,98.88
3105.00,98.88
3104.00,98.88
3103.00,98.87
3102.00,98.87
3101.00,98.87
3100.00,98.87
3099.00,98.87
3098.00,98.87
3097.00,98.87
3096.00,98.87
3095.00,98.87
3094.00,98.87
3093.00,98.87
3092.00,98.87
3091.00,98.87
3090.00,98.87
3089.00,98.87
3088.00,98.86
3087.00,98.86
3086.00,98.86
3085.00,98.85
3084.00,98.85
3083.00,98.85
3082.00,98.85
3081.00,98.84
3080.00,98.84
3079.00,98.84
3078.00,98.84
3077.00,98.83
3076.00,98.83
3075.00,98.83
3074.00,98.82
3073.00,98.82
3072.00,98.81
3071.00,98.80
3070.00,98.80
3069.00,98.79
3068.00,98.79
3067.00,98.78
3066.00,98.77
3065.00,98.77
3064.00,98.76
3063.00,98.75
3062.00,98.74
3061.00,98.73
3060.00,98.72
3059.00,98.71
3058.00,98.69
3057.00,98.68
3056.00,98.66
3055.00,98.65
3054.00,98.63
3053.00,98.60
3052.00,98.58
3051.00,98.56
3050.00,98.54
3049.00,98.51
3048.00,98.49
3047.00,98.46
3046.00,98.43
3045.00,98.40
3044.00,98.37
3043.00,98.33
3042.00,98.30
3041.00,98.26
3040.00,98.22
3039.00,98.17
3038.00,98.12
3037.00,98.08
3036.00,98.03
3035.00,97.98
3034.00,97.93
3033.00,97.88
3032.00,97.82
3031.00,97.77
3030.00,97.71
3029.00,97.65
3028.00,97.58
3027.00,97.52
3026.00,97.45
3025.00,97.39
3024.00,97.32
3023.00,97.26
3022.00,97.19
3021.00,97.13
3020.00,97.06
3019.00,97.00
3018.00,96.93
3017.00,96.86
3016.00,96.79
3015.00,96.72
3014.00,96.65
3013.00,96.57
3012.00,96.49
3011.00,96.41
3010.00,96.33
3009.00,96.25
3008.00,96.17
3007.00,96.08
3006.00,96.00
3005.00,95.91
3004.00,95.83
3003.00,95.76
3002.00,95.69
3001.00,95.63
3000.00,95.57
2999.00,95.52
2998.00,95.48
2997.00,95.45
2996.00,95.42
2995.00,95.41
2994.00,95.41
2993.00,95.42
2992.00,95.44
2991.00,95.48
2990.00,95.52
2989.00,95.58
2988.00,95.64
2987.00,95.71
2986.00,95.78
2985.00,95.86
2984.00,95.94
2983.00,96.01
2982.00,96.09
2981.00,96.17
2980.00,96.26
2979.00,96.33
2978.00,96.39
2977.00,96.44
2976.00,96.47
2975.00,96.48
2974.00,96.47
2973.00,96.44
2972.00,96.40
2971.00,96.35
2970.00,96.28
2969.00,96.19
2968.00,96.09
2967.00,95.97
2966.00,95.84
2965.00,95.69
2964.00,95.52
2963.00,95.34
2962.00,95.15
2961.00,94.94
2960.00,94.73
2959.00,94.51
2958.00,94.29
2957.00,94.08
2956.00,93.87
2955.00,93.69
2954.00,93.53
2953.00,93.41
2952.00,93.33
2951.00,93.30
2950.00,93.31
2949.00,93.38
2948.00,93.51
2947.00,93.67
2946.00,93.87
2945.00,94.08
2944.00,94.30
2943.00,94.50
2942.00,94.69
2941.00,94.86
2940.00,95.00
2939.00,95.13
2938.00,95.23
2937.00,95.32
2936.00,95.39
2935.00,95.45
2934.00,95.50
2933.00,95.56
2932.00,95.61
2931.00,95.67
2930.00,95.71
2929.00,95.76
2928.00,95.81
2927.00,95.85
2926.00,95.90
2925.00,95.94
2924.00,95.99
2923.00,96.03
2922.00,96.08
2921.00,96.12
2920.00,96.16
2919.00,96.21
2918.00,96.25
2917.00,96.30
2916.00,96.34
2915.00,96.39
2914.00,96.43
2913.00,96.47
2912.00,96.51
2911.00,96.55
2910.00,96.59
2909.00,96.63
2908.00,96.67
2907.00,96.71
2906.00,96.75
2905.00,96.80
2904.00,96.84
2903.00,96.89
2902.00,96.94
2901.00,96.99
2900.00,97.03
2899.00,97.07
2898.00,97.11
2897.00,97.14
2896.00,97.18
2895.00,97.20
2894.00,97.23
2893.00,97.26
2892.00,97.28
2891.00,97.31
2890.00,97.33
2889.00,97.36
2888.00,97.39
2887.00,97.42
2886.00,97.45
2885.00,97.49
2884.00,97.53
2883.00,97.56
2882.00,97.60
2881.00,97.64
2880.00,97.68
2879.00,97.72
2878.00,97.76
2877.00,97.80
2876.00,97.84
2875.00,97.88
2874.00,97.91
2873.00,97.94
2872.00,97.97
2871.00,97.99
2870.00,98.02
2869.00,98.04
2868.00,98.06
2867.00,98.09
2866.00,98.10
2865.00,98.12
2864.00,98.13
2863.00,98.14
2862.00,98.15
2861.00,98.15
2860.00,98.15
2859.00,98.14
2858.00,98.13
2857.00,98.12
2856.00,98.11
2855.00,98.08
2854.00,98.06
2853.00,98.04
2852.00,98.01
2851.00,97.99
2850.00,97.97
2849.00,97.95
2848.00,97.92
2847.00,97.91
2846.00,97.89
2845.00,97.88
2844.00,97.87
2843.00,97.87
2842.00,97.88
2841.00,97.90
2840.00,97.92
2839.00,97.95
2838.00,97.99
2837.00,98.03
2836.00,98.07
2835.00,98.12
2834.00,98.16
2833.00,98.20
2832.00,98.24
2831.00,98.28
2830.00,98.31
2829.00,98.34
2828.00,98.37
2827.00,98.40
2826.00,98.42
2825.00,98.44
2824.00,98.46
2823.00,98.48
2822.00,98.49
2821.00,98.51
2820.00,98.53
2819.00,98.55
2818.00,98.56
2817.00,98.57
2816.00,98.58
2815.00,98.60
2814.00,98.61
2813.00,98.62
2812.00,98.63
2811.00,98.63
2810.00,98.64
2809.00,98.64
2808.00,98.65
2807.00,98.65
2806.00,98.66
2805.00,98.66
2804.00,98.67
2803.00,98.67
2802.00,98.68
2801.00,98.68
2800.00,98.69
2799.00,98.69
2798.00,98.70
2797.00,98.70
2796.00,98.70
2795.00,98.70
2794.00,98.70
2793.00,98.71
2792.00,98.71
2791.00,98.72
2790.00,98.72
2789.00,98.72
2788.00,98.72
2787.00,98.72
2786.00,98.72
2785.00,98.72
2784.00,98.72
2783.00,98.72
2782.00,98.71
2781.00,98.71
2780.00,98.71
2779.00,98.72
2778.00,98.72
2777.00,98.72
2776.00,98.72
2775.00,98.73
2774.00,98.73
2773.00,98.73
2772.00,98.73
2771.00,98.73
2770.00,98.74
2769.00,98.74
2768.00,98.74
2767.00,98.74
2766.00,98.74
2765.00,98.74
2764.00,98.74
2763.00,98.74
2762.00,98.74
2761.00,98.74
2760.00,98.75
2759.00,98.75
2758.00,98.75
2757.00,98.75
2756.00,98.75
2755.00,98.75
2754.00,98.75
2753.00,98.75
2752.00,98.76
2751.00,98.76
2750.00,98.76
2749.00,98.76
2748.00,98.76
2747.00,98.76
2746.00,98.76
2745.00,98.76
2744.00,98.76
2743.00,98.76
2742.00,98.76
2741.00,98.76
2740.00,98.77
2739.00,98.77
2738.00,98.77
2737.00,98.78
2736.00,98.78
2735.00,98.78
2734.00,98.78
2733.00,98.78
2732.00,98.78
2731.00,98.79
2730.00,98.79
2729.00,98.79
2728.00,98.79
2727.00,98.80
2726.00,98.80
2725.00,98.80
2724.00,98.80
2723.00,98.80
2722.00,98.80
2721.00,98.80
2720.00,98.80
2719.00,98.80
2718.00,98.80
2717.00,98.81
2716.00,98.81
2715.00,98.81
2714.00,98.81
2713.00,98.81
2712.00,98.81
2711.00,98.81
2710.00,98.81
2709.00,98.81
2708.00,98.81
2707.00,98.81
2706.00,98.81
2705.00,98.81
2704.00,98.81
2703.00,98.81
2702.00,98.81
2701.00,98.81
2700.00,98.81
2699.00,98.81
2698.00,98.81
2697.00,98.81
2696.00,98.81
2695.00,98.81
2694.00,98.81
2693.00,98.81
2692.00,98.82
2691.00,98.82
2690.00,98.82
2689.00,98.81
2688.00,98.81
2687.00,98.81
2686.00,98.81
2685.00,98.81
2684.00,98.81
2683.00,98.81
2682.00,98.81
2681.00,98.81
2680.00,98.81
2679.00,98.82
2678.00,98.82
2677.00,98.82
2676.00,98.81
2675.00,98.81
2674.00,98.81
2673.00,98.81
2672.00,98.81
2671.00,98.81
2670.00,98.81
2669.00,98.81
2668.00,98.80
2667.00,98.80
2666.00,98.79
2665.00,98.78
2664.00,98.77
2663.00,98.76
2662.00,98.75
2661.00,98.74
2660.00,98.73
2659.00,98.72
2658.00,98.72
2657.00,98.71
2656.00,98.70
2655.00,98.70
2654.00,98.69
2653.00,98.69
2652.00,98.68
2651.00,98.67
2650.00,98.67
2649.00,98.67
2648.00,98.67
2647.00,98.67
2646.00,98.67
2645.00,98.67
2644.00,98.66
2643.00,98.66
2642.00,98.66
2641.00,98.66
2640.00,98.66
2639.00,98.66
2638.00,98.66
2637.00,98.66
2636.00,98.66
2635.00,98.66
2634.00,98.66
2633.00,98.66
2632.00,98.66
2631.00,98.66
2630.00,98.66
2629.00,98.66
2628.00,98.66
2627.00,98.66
2626.00,98.66
2625.00,98.66
2624.00,98.66
2623.00,98.66
2622.00,98.65
2621.00,98.65
2620.00,98.65
2619.00,98.65
2618.00,98.65
2617.00,98.65
2616.00,98.65
2615.00,98.65
2614.00,98.65
2613.00,98.65
2612.00,98.65
2611.00,98.65
2610.00,98.66
2609.00,98.66
2608.00,98.66
2607.00,98.66
2606.00,98.65
2605.00,98.65
2604.00,98.65
2603.00,98.64
2602.00,98.63
2601.00,98.63
2600.00,98.63
2599.00,98.64
2598.00,98.64
2597.00,98.65
2596.00,98.65
2595.00,98.66
2594.00,98.66
2593.00,98.66
2592.00,98.66
2591.00,98.66
2590.00,98.66
2589.00,98.66
2588.00,98.66
2587.00,98.67
2586.00,98.67
2585.00,98.67
2584.00,98.67
2583.00,98.67
2582.00,98.68
2581.00,98.68
2580.00,98.68
2579.00,98.68
2578.00,98.68
2577.00,98.68
2576.00,98.68
2575.00,98.68
2574.00,98.68
2573.00,98.68
2572.00,98.69
2571.00,98.69
2570.00,98.69
2569.00,98.69
2568.00,98.68
2567.00,98.68
2566.00,98.68
2565.00,98.68
2564.00,98.69
2563.00,98.70
2562.00,98.71
2561.00,98.71
2560.00,98.72
2559.00,98.72
2558.00,98.71
2557.00,98.71
2556.00,98.71
2555.00,98.71
2554.00,98.70
2553.00,98.70
2552.00,98.71
2551.00,98.71
2550.00,98.71
2549.00,98.71
2548.00,98.71
2547.00,98.71
2546.00,98.70
2545.00,98.70
2544.00,98.70
2543.00,98.70
2542.00,98.71
2541.00,98.72
2540.00,98.72
2539.00,98.72
2538.00,98.72
2537.00,98.72
2536.00,98.71
2535.00,98.72
2534.00,98.72
2533.00,98.72
2532.00,98.73
2531.00,98.73
2530.00,98.74
2529.00,98.74
2528.00,98.74
2527.00,98.74
2526.00,98.74
2525.00,98.74
2524.00,98.75
2523.00,98.75
2522.00,98.75
2521.00,98.75
2520.00,98.76
2519.00,98.75
2518.00,98.75
2517.00,98.75
2516.00,98.76
2515.00,98.76
2514.00,98.77
2513.00,98.77
2512.00,98.77
2511.00,98.77
2510.00,98.76
2509.00,98.76
2508.00,98.75
2507.00,98.75
2506.00,98.76
2505.00,98.77
2504.00,98.77
2503.00,98.78
2502.00,98.78
2501.00,98.77
2500.00,98.77
2499.00,98.77
2498.00,98.77
2497.00,98.77
2496.00,98.77
2495.00,98.77
2494.00,98.77
2493.00,98.76
2492.00,98.76
2491.00,98.77
2490.00,98.77
2489.00,98.77
2488.00,98.77
2487.00,98.77
2486.00,98.77
2485.00,98.77
2484.00,98.78
2483.00,98.78
2482.00,98.78
2481.00,98.78
2480.00,98.78
2479.00,98.77
2478.00,98.77
2477.00,98.78
2476.00,98.78
2475.00,98.78
2474.00,98.78
2473.00,98.78
2472.00,98.78
2471.00,98.77
2470.00,98.77
2469.00,98.77
2468.00,98.77
2467.00,98.77
2466.00,98.77
2465.00,98.77
2464.00,98.77
2463.00,98.77
2462.00,98.76
2461.00,98.76
2460.00,98.75
2459.00,98.74
2458.00,98.73
2457.00,98.72
2456.00,98.72
2455.00,98.72
2454.00,98.71
2453.00,98.71
2452.00,98.72
2451.00,98.72
2450.00,98.73
2449.00,98.73
2448.00,98.73
2447.00,98.73
2446.00,98.73
2445.00,98.73
2444.00,98.73
2443.00,98.73
2442.00,98.74
2441.00,98.74
2440.00,98.75
2439.00,98.75
2438.00,98.74
2437.00,98.74
2436.00,98.74
2435.00,98.74
2434.00,98.74
2433.00,98.74
2432.00,98.74
2431.00,98.74
2430.00,98.74
2429.00,98.74
2428.00,98.74
2427.00,98.74
2426.00,98.74
2425.00,98.74
2424.00,98.74
2423.00,98.73
2422.00,98.74
2421.00,98.74
2420.00,98.74
2419.00,98.74
2418.00,98.75
2417.00,98.75
2416.00,98.75
2415.00,98.75
2414.00,98.75
2413.00,98.75
2412.00,98.75
2411.00,98.75
2410.00,98.75
2409.00,98.75
2408.00,98.76
2407.00,98.77
2406.00,98.78
2405.00,98.78
2404.00,98.79
2403.00,98.79
2402.00,98.80
2401.00,98.80
2400.00,98.80
2399.00,98.79
2398.00,98.79
2397.00,98.79
2396.00,98.80
2395.00,98.80
2394.00,98.80
2393.00,98.80
2392.00,98.80
2391.00,98.80
2390.00,98.81
2389.00,98.81
2388.00,98.81
2387.00,98.81
2386.00,98.81
2385.00,98.82
2384.00,98.82
2383.00,98.83
2382.00,98.84
2381.00,98.85
2380.00,98.86
2379.00,98.87
2378.00,98.88
2377.00,98.88
2376.00,98.88
2375.00,98.89
2374.00,98.89
2373.00,98.90
2372.00,98.89
2371.00,98.89
2370.00,98.90
2369.00,98.90
2368.00,98.91
2367.00,98.92
2366.00,98.93
2365.00,98.95
2364.00,98.95
2363.00,98.94
2362.00,98.92
2361.00,98.89
2360.00,98.87
2359.00,98.86
2358.00,98.86
2357.00,98.86
2356.00,98.86
2355.00,98.86
2354.00,98.87
2353.00,98.88
2352.00,98.89
2351.00,98.88
2350.00,98.88
2349.00,98.88
2348.00,98.89
2347.00,98.90
2346.00,98.91
2345.00,98.91
2344.00,98.90
2343.00,98.88
2342.00,98.86
2341.00,98.84
2340.00,98.84
2339.00,98.84
2338.00,98.83
2337.00,98.81
2336.00,98.80
2335.00,98.79
2334.00,98.78
2333.00,98.78
2332.00,98.78
2331.00,98.79
2330.00,98.79
2329.00,98.79
2328.00,98.77
2327.00,98.71
2326.00,98.64
2325.00,98.57
2324.00,98.52
2323.00,98.51
2322.00,98.53
2321.00,98.55
2320.00,98.57
2319.00,98.58
2318.00,98.59
2317.00,98.61
2316.00,98.62
2315.00,98.63
2314.00,98.64
2313.00,98.64
2312.00,98.64
2311.00,98.65
2310.00,98.65
2309.00,98.65
2308.00,98.64
2307.00,98.64
2306.00,98.63
2305.00,98.63
2304.00,98.62
2303.00,98.62
2302.00,98.62
2301.00,98.62
2300.00,98.62
2299.00,98.62
2298.00,98.61
2297.00,98.60
2296.00,98.59
2295.00,98.58
2294.00,98.57
2293.00,98.56
2292.00,98.54
2291.00,98.53
2290.00,98.51
2289.00,98.50
2288.00,98.48
2287.00,98.47
2286.00,98.46
2285.00,98.46
2284.00,98.47
2283.00,98.48
2282.00,98.49
2281.00,98.51
2280.00,98.52
2279.00,98.52
2278.00,98.53
2277.00,98.54
2276.00,98.55
2275.00,98.56
2274.00,98.56
2273.00,98.56
2272.00,98.57
2271.00,98.57
2270.00,98.57
2269.00,98.57
2268.00,98.58
2267.00,98.59
2266.00,98.60
2265.00,98.61
2264.00,98.61
2263.00,98.61
2262.00,98.60
2261.00,98.59
2260.00,98.58
2259.00,98.57
2258.00,98.57
2257.00,98.57
2256.00,98.58
2255.00,98.59
2254.00,98.61
2253.00,98.62
2252.00,98.63
2251.00,98.62
2250.00,98.60
2249.00,98.59
2248.00,98.58
2247.00,98.57
2246.00,98.57
2245.00,98.58
2244.00,98.58
2243.00,98.58
2242.00,98.58
2241.00,98.58
2240.00,98.57
2239.00,98.57
2238.00,98.56
2237.00,98.56
2236.00,98.56
2235.00,98.57
2234.00,98.57
2233.00,98.57
2232.00,98.57
2231.00,98.57
2230.00,98.57
2229.00,98.56
2228.00,98.55
2227.00,98.55
2226.00,98.54
2225.00,98.54
2224.00,98.54
2223.00,98.54
2222.00,98.55
2221.00,98.55
2220.00,98.56
2219.00,98.56
2218.00,98.56
2217.00,98.56
2216.00,98.55
2215.00,98.54
2214.00,98.54
2213.00,98.54
2212.00,98.53
2211.00,98.53
2210.00,98.52
2209.00,98.52
2208.00,98.53
2207.00,98.52
2206.00,98.51
2205.00,98.50
2204.00,98.49
2203.00,98.50
2202.00,98.50
2201.00,98.50
2200.00,98.49
2199.00,98.47
2198.00,98.46
2197.00,98.45
2196.00,98.45
2195.00,98.44
2194.00,98.43
2193.00,98.42
2192.00,98.42
2191.00,98.41
2190.00,98.41
2189.00,98.41
2188.00,98.41
2187.00,98.40
2186.00,98.39
2185.00,98.38
2184.00,98.39
2183.00,98.41
2182.00,98.45
2181.00,98.48
2180.00,98.49
2179.00,98.48
2178.00,98.45
2177.00,98.45
2176.00,98.47
2175.00,98.49
2174.00,98.50
2173.00,98.50
2172.00,98.47
2171.00,98.43
2170.00,98.38
2169.00,98.32
2168.00,98.26
2167.00,98.21
2166.00,98.18
2165.00,98.16
2164.00,98.13
2163.00,98.08
2162.00,98.06
2161.00,98.10
2160.00,98.25
2159.00,98.49
2158.00,98.73
2157.00,98.89
2156.00,98.95
2155.00,98.94
2154.00,98.91
2153.00,98.87
2152.00,98.83
2151.00,98.80
2150.00,98.76
2149.00,98.74
2148.00,98.73
2147.00,98.74
2146.00,98.76
2145.00,98.78
2144.00,98.79
2143.00,98.78
2142.00,98.77
2141.00,98.75
2140.00,98.74
2139.00,98.73
2138.00,98.73
2137.00,98.76
2136.00,98.80
2135.00,98.84
2134.00,98.89
2133.00,98.92
2132.00,98.92
2131.00,98.89
2130.00,98.86
2129.00,98.82
2128.00,98.79
2127.00,98.76
2126.00,98.74
2125.00,98.73
2124.00,98.71
2123.00,98.69
2122.00,98.67
2121.00,98.66
2120.00,98.64
2119.00,98.62
2118.00,98.61
2117.00,98.59
2116.00,98.57
2115.00,98.55
2114.00,98.54
2113.00,98.52
2112.00,98.51
2111.00,98.51
2110.00,98.51
2109.00,98.52
2108.00,98.52
2107.00,98.51
2106.00,98.50
2105.00,98.50
2104.00,98.50
2103.00,98.50
2102.00,98.50
2101.00,98.51
2100.00,98.51
2099.00,98.50
2098.00,98.50
2097.00,98.51
2096.00,98.54
2095.00,98.58
2094.00,98.61
2093.00,98.62
2092.00,98.61
2091.00,98.59
2090.00,98.56
2089.00,98.54
2088.00,98.53
2087.00,98.51
2086.00,98.49
2085.00,98.47
2084.00,98.46
2083.00,98.45
2082.00,98.44
2081.00,98.43
2080.00,98.43
2079.00,98.42
2078.00,98.42
2077.00,98.42
2076.00,98.42
2075.00,98.41
2074.00,98.40
2073.00,98.40
2072.00,98.40
2071.00,98.40
2070.00,98.41
2069.00,98.41
2068.00,98.42
2067.00,98.42
2066.00,98.41
2065.00,98.41
2064.00,98.41
2063.00,98.41
2062.00,98.41
2061.00,98.41
2060.00,98.40
2059.00,98.39
2058.00,98.37
2057.00,98.36
2056.00,98.35
2055.00,98.34
2054.00,98.33
2053.00,98.29
2052.00,98.22
2051.00,98.15
2050.00,98.11
2049.00,98.14
2048.00,98.19
2047.00,98.22
2046.00,98.23
2045.00,98.22
2044.00,98.22
2043.00,98.21
2042.00,98.21
2041.00,98.21
2040.00,98.22
2039.00,98.21
2038.00,98.21
2037.00,98.21
2036.00,98.22
2035.00,98.24
2034.00,98.26
2033.00,98.29
2032.00,98.31
2031.00,98.31
2030.00,98.31
2029.00,98.31
2028.00,98.31
2027.00,98.31
2026.00,98.32
2025.00,98.34
2024.00,98.36
2023.00,98.37
2022.00,98.37
2021.00,98.37
2020.00,98.38
2019.00,98.38
2018.00,98.39
2017.00,98.39
2016.00,98.40
2015.00,98.40
2014.00,98.38
2013.00,98.37
2012.00,98.37
2011.00,98.36
2010.00,98.36
2009.00,98.38
2008.00,98.44
2007.00,98.50
2006.00,98.55
2005.00,98.56
2004.00,98.55
2003.00,98.50
2002.00,98.46
2001.00,98.44
2000.00,98.42
1999.00,98.41
1998.00,98.40
1997.00,98.39
1996.00,98.39
1995.00,98.37
1994.00,98.35
1993.00,98.34
1992.00,98.32
1991.00,98.30
1990.00,98.29
1989.00,98.29
1988.00,98.28
1987.00,98.26
1986.00,98.23
1985.00,98.21
1984.00,98.18
1983.00,98.14
1982.00,98.09
1981.00,98.04
1980.00,98.01
1979.00,98.04
1978.00,98.12
1977.00,98.24
1976.00,98.34
1975.00,98.39
1974.00,98.40
1973.00,98.42
1972.00,98.43
1971.00,98.44
1970.00,98.44
1969.00,98.45
1968.00,98.46
1967.00,98.45
1966.00,98.44
1965.00,98.44
1964.00,98.45
1963.00,98.46
1962.00,98.48
1961.00,98.52
1960.00,98.55
1959.00,98.58
1958.00,98.58
1957.00,98.58
1956.00,98.57
1955.00,98.55
1954.00,98.54
1953.00,98.53
1952.00,98.54
1951.00,98.54
1950.00,98.55
1949.00,98.57
1948.00,98.57
1947.00,98.57
1946.00,98.57
1945.00,98.57
1944.00,98.58
1943.00,98.58
1942.00,98.59
1941.00,98.60
1940.00,98.61
1939.00,98.62
1938.00,98.63
1937.00,98.64
1936.00,98.66
1935.00,98.67
1934.00,98.67
1933.00,98.67
1932.00,98.66
1931.00,98.65
1930.00,98.64
1929.00,98.64
1928.00,98.66
1927.00,98.68
1926.00,98.69
1925.00,98.71
1924.00,98.71
1923.00,98.70
1922.00,98.69
1921.00,98.68
1920.00,98.69
1919.00,98.69
1918.00,98.70
1917.00,98.71
1916.00,98.71
1915.00,98.71
1914.00,98.70
1913.00,98.71
1912.00,98.72
1911.00,98.73
1910.00,98.73
1909.00,98.73
1908.00,98.74
1907.00,98.74
1906.00,98.74
1905.00,98.74
1904.00,98.74
1903.00,98.74
1902.00,98.74
1901.00,98.75
1900.00,98.76
1899.00,98.76
1898.00,98.76
1897.00,98.76
1896.00,98.76
1895.00,98.76
1894.00,98.77
1893.00,98.78
1892.00,98.79
1891.00,98.79
1890.00,98.79
1889.00,98.80
1888.00,98.80
1887.00,98.80
1886.00,98.79
1885.00,98.79
1884.00,98.79
1883.00,98.79
1882.00,98.79
1881.00,98.79
1880.00,98.79
1879.00,98.79
1878.00,98.79
1877.00,98.79
1876.00,98.79
1875.00,98.79
1874.00,98.80
1873.00,98.80
1872.00,98.81
1871.00,98.80
1870.00,98.80
1869.00,98.80
1868.00,98.80
1867.00,98.80
1866.00,98.80
1865.00,98.80
1864.00,98.81
1863.00,98.81
1862.00,98.81
1861.00,98.82
1860.00,98.82
1859.00,98.81
1858.00,98.80
1857.00,98.79
1856.00,98.80
1855.00,98.80
1854.00,98.79
1853.00,98.79
1852.00,98.79
1851.00,98.79
1850.00,98.78
1849.00,98.78
1848.00,98.78
1847.00,98.78
1846.00,98.78
1845.00,98.78
1844.00,98.79
1843.00,98.79
1842.00,98.79
1841.00,98.78
1840.00,98.78
1839.00,98.77
1838.00,98.75
1837.00,98.75
1836.00,98.75
1835.00,98.75
1834.00,98.74
1833.00,98.75
1832.00,98.75
1831.00,98.75
1830.00,98.75
1829.00,98.75
1828.00,98.75
1827.00,98.75
1826.00,98.74
1825.00,98.74
1824.00,98.74
1823.00,98.74
1822.00,98.73
1821.00,98.74
1820.00,98.76
1819.00,98.77
1818.00,98.79
1817.00,98.80
1816.00,98.80
1815.00,98.79
1814.00,98.77
1813.00,98.76
1812.00,98.76
1811.00,98.75
1810.00,98.74
1809.00,98.74
1808.00,98.74
1807.00,98.73
1806.00,98.72
1805.00,98.71
1804.00,98.71
1803.00,98.70
1802.00,98.70
1801.00,98.70
1800.00,98.70
1799.00,98.70
1798.00,98.69
1797.00,98.70
1796.00,98.70
1795.00,98.68
1794.00,98.67
1793.00,98.66
1792.00,98.66
1791.00,98.66
1790.00,98.66
1789.00,98.66
1788.00,98.66
1787.00,98.65
1786.00,98.64
1785.00,98.64
1784.00,98.64
1783.00,98.63
1782.00,98.62
1781.00,98.61
1780.00,98.61
1779.00,98.60
1778.00,98.59
1777.00,98.59
1776.00,98.58
1775.00,98.56
1774.00,98.54
1773.00,98.52
1772.00,98.50
1771.00,98.46
1770.00,98.42
1769.00,98.40
1768.00,98.36
1767.00,98.31
1766.00,98.26
1765.00,98.21
1764.00,98.15
1763.00,98.06
1762.00,97.94
1761.00,97.82
1760.00,97.69
1759.00,97.52
1758.00,97.30
1757.00,97.04
1756.00,96.74
1755.00,96.42
1754.00,96.05
1753.00,95.62
1752.00,95.04
1751.00,94.31
1750.00,93.46
1749.00,92.57
1748.00,91.63
1747.00,90.64
1746.00,89.62
1745.00,88.55
1744.00,87.42
1743.00,86.28
1742.00,85.14
1741.00,83.96
1740.00,82.71
1739.00,81.51
1738.00,80.51
1737.00,79.70
1736.00,78.85
1735.00,77.66
1734.00,76.24
1733.00,75.04
1732.00,74.16
1731.00,73.38
1730.00,72.57
1729.00,71.78
1728.00,71.11
1727.00,70.53
1726.00,70.04
1725.00,69.64
1724.00,69.38
1723.00,69.25
1722.00,69.26
1721.00,69.45
1720.00,69.85
1719.00,70.50
1718.00,71.44
1717.00,72.61
1716.00,73.90
1715.00,75.24
1714.00,76.60
1713.00,77.98
1712.00,79.34
1711.00,80.69
1710.00,81.99
1709.00,83.22
1708.00,84.37
1707.00,85.50
1706.00,86.62
1705.00,87.60
1704.00,88.37
1703.00,88.99
1702.00,89.60
1701.00,90.30
1700.00,90.98
1699.00,91.48
1698.00,91.83
1697.00,92.14
1696.00,92.46
1695.00,92.77
1694.00,93.02
1693.00,93.20
1692.00,93.37
1691.00,93.55
1690.00,93.74
1689.00,93.90
1688.00,94.04
1687.00,94.18
1686.00,94.35
1685.00,94.53
1684.00,94.73
1683.00,94.92
1682.00,95.08
1681.00,95.22
1680.00,95.35
1679.00,95.50
1678.00,95.63
1677.00,95.76
1676.00,95.88
1675.00,96.01
1674.00,96.13
1673.00,96.21
1672.00,96.28
1671.00,96.36
1670.00,96.45
1669.00,96.52
1668.00,96.58
1667.00,96.63
1666.00,96.67
1665.00,96.71
1664.00,96.74
1663.00,96.78
1662.00,96.83
1661.00,96.86
1660.00,96.88
1659.00,96.91
1658.00,96.93
1657.00,96.95
1656.00,96.96
1655.00,96.98
1654.00,97.00
1653.00,97.00
1652.00,97.00
1651.00,97.00
1650.00,97.01
1649.00,97.00
1648.00,97.00
1647.00,97.00
1646.00,97.01
1645.00,97.00
1644.00,96.99
1643.00,96.99
1642.00,96.98
1641.00,96.98
1640.00,96.96
1639.00,96.96
1638.00,96.97
1637.00,96.97
1636.00,96.98
1635.00,97.00
1634.00,97.03
1633.00,97.04
1632.00,97.05
1631.00,97.06
1630.00,97.08
1629.00,97.09
1628.00,97.10
1627.00,97.12
1626.00,97.14
1625.00,97.15
1624.00,97.16
1623.00,97.17
1622.00,97.20
1621.00,97.22
1620.00,97.24
1619.00,97.26
1618.00,97.29
1617.00,97.31
1616.00,97.33
1615.00,97.35
1614.00,97.37
1613.00,97.39
1612.00,97.41
1611.00,97.44
1610.00,97.46
1609.00,97.48
1608.00,97.49
1607.00,97.52
1606.00,97.54
1605.00,97.56
1604.00,97.57
1603.00,97.59
1602.00,97.61
1601.00,97.62
1600.00,97.63
1599.00,97.64
1598.00,97.65
1597.00,97.65
1596.00,97.65
1595.00,97.65
1594.00,97.66
1593.00,97.67
1592.00,97.68
1591.00,97.69
1590.00,97.71
1589.00,97.72
1588.00,97.72
1587.00,97.73
1586.00,97.75
1585.00,97.76
1584.00,97.76
1583.00,97.78
1582.00,97.79
1581.00,97.80
1580.00,97.80
1579.00,97.81
1578.00,97.82
1577.00,97.82
1576.00,97.82
1575.00,97.82
1574.00,97.82
1573.00,97.82
1572.00,97.82
1571.00,97.84
1570.00,97.85
1569.00,97.86
1568.00,97.86
1567.00,97.86
1566.00,97.87
1565.00,97.87
1564.00,97.87
1563.00,97.88
1562.00,97.89
1561.00,97.89
1560.00,97.88
1559.00,97.88
1558.00,97.88
1557.00,97.88
1556.00,97.88
1555.00,97.88
1554.00,97.89
1553.00,97.89
1552.00,97.88
1551.00,97.88
1550.00,97.88
1549.00,97.88
1548.00,97.87
1547.00,97.88
1546.00,97.88
1545.00,97.88
1544.00,97.87
1543.00,97.86
1542.00,97.87
1541.00,97.87
1540.00,97.87
1539.00,97.89
1538.00,97.90
1537.00,97.91
1536.00,97.91
1535.00,97.92
1534.00,97.94
1533.00,97.94
1532.00,97.94
1531.00,97.95
1530.00,97.95
1529.00,97.95
1528.00,97.94
1527.00,97.95
1526.00,97.95
1525.00,97.95
1524.00,97.95
1523.00,97.94
1522.00,97.95
1521.00,97.94
1520.00,97.93
1519.00,97.93
1518.00,97.94
1517.00,97.92
1516.00,97.90
1515.00,97.89
1514.00,97.89
1513.00,97.87
1512.00,97.84
1511.00,97.82
1510.00,97.80
1509.00,97.77
1508.00,97.70
1507.00,97.62
1506.00,97.53
1505.00,97.44
1504.00,97.36
1503.00,97.27
1502.00,97.17
1501.00,97.03
1500.00,96.85
1499.00,96.65
1498.00,96.40
1497.00,96.07
1496.00,95.69
1495.00,95.33
1494.00,95.00
1493.00,94.66
1492.00,94.28
1491.00,93.83
1490.00,93.34
1489.00,92.88
1488.00,92.50
1487.00,92.20
1486.00,91.97
1485.00,91.77
1484.00,91.63
1483.00,91.53
1482.00,91.44
1481.00,91.38
1480.00,91.34
1479.00,91.32
1478.00,91.32
1477.00,91.32
1476.00,91.34
1475.00,91.38
1474.00,91.43
1473.00,91.47
1472.00,91.52
1471.00,91.57
1470.00,91.60
1469.00,91.61
1468.00,91.59
1467.00,91.54
1466.00,91.44
1465.00,91.29
1464.00,91.12
1463.00,90.97
1462.00,90.84
1461.00,90.71
1460.00,90.57
1459.00,90.40
1458.00,90.14
1457.00,89.78
1456.00,89.45
1455.00,89.20
1454.00,88.97
1453.00,88.71
1452.00,88.45
1451.00,88.22
1450.00,88.01
1449.00,87.82
1448.00,87.68
1447.00,87.61
1446.00,87.58
1445.00,87.57
1444.00,87.57
1443.00,87.56
1442.00,87.49
1441.00,87.37
1440.00,87.21
1439.00,87.01
1438.00,86.73
1437.00,86.36
1436.00,86.06
1435.00,85.95
1434.00,86.00
1433.00,86.21
1432.00,86.60
1431.00,87.20
1430.00,87.96
1429.00,88.81
1428.00,89.65
1427.00,90.45
1426.00,91.22
1425.00,91.99
1424.00,92.73
1423.00,93.34
1422.00,93.82
1421.00,94.23
1420.00,94.64
1419.00,95.01
1418.00,95.31
1417.00,95.54
1416.00,95.70
1415.00,95.83
1414.00,95.94
1413.00,96.04
1412.00,96.11
1411.00,96.14
1410.00,96.15
1409.00,96.15
1408.00,96.12
1407.00,96.05
1406.00,95.95
1405.00,95.83
1404.00,95.68
1403.00,95.52
1402.00,95.36
1401.00,95.19
1400.00,94.99
1399.00,94.76
1398.00,94.53
1397.00,94.31
1396.00,94.05
1395.00,93.76
1394.00,93.45
1393.00,93.18
1392.00,92.93
1391.00,92.71
1390.00,92.53
1389.00,92.39
1388.00,92.31
1387.00,92.30
1386.00,92.37
1385.00,92.51
1384.00,92.69
1383.00,92.91
1382.00,93.16
1381.00,93.44
1380.00,93.72
1379.00,93.99
1378.00,94.24
1377.00,94.43
1376.00,94.58
1375.00,94.69
1374.00,94.75
1373.00,94.78
1372.00,94.79
1371.00,94.78
1370.00,94.76
1369.00,94.74
1368.00,94.72
1367.00,94.71
1366.00,94.72
1365.00,94.74
1364.00,94.77
1363.00,94.81
1362.00,94.86
1361.00,94.93
1360.00,95.00
1359.00,95.07
1358.00,95.14
1357.00,95.21
1356.00,95.28
1355.00,95.35
1354.00,95.42
1353.00,95.49
1352.00,95.55
1351.00,95.60
1350.00,95.65
1349.00,95.70
1348.00,95.75
1347.00,95.79
1346.00,95.82
1345.00,95.85
1344.00,95.89
1343.00,95.91
1342.00,95.93
1341.00,95.95
1340.00,95.97
1339.00,95.98
1338.00,96.00
1337.00,96.01
1336.00,96.02
1335.00,96.02
1334.00,96.02
1333.00,96.01
1332.00,96.00
1331.00,95.98
1330.00,95.96
1329.00,95.95
1328.00,95.93
1327.00,95.93
1326.00,95.93
1325.00,95.94
1324.00,95.97
1323.00,95.99
1322.00,96.02
1321.00,96.04
1320.00,96.06
1319.00,96.08
1318.00,96.09
1317.00,96.11
1316.00,96.11
1315.00,96.11
1314.00,96.10
1313.00,96.09
1312.00,96.06
1311.00,96.03
1310.00,95.99
1309.00,95.94
1308.00,95.89
1307.00,95.82
1306.00,95.75
1305.00,95.67
1304.00,95.59
1303.00,95.51
1302.00,95.44
1301.00,95.38
1300.00,95.32
1299.00,95.26
1298.00,95.20
1297.00,95.13
1296.00,95.05
1295.00,94.96
1294.00,94.86
1293.00,94.74
1292.00,94.60
1291.00,94.46
1290.00,94.29
1289.00,94.11
1288.00,93.90
1287.00,93.67
1286.00,93.41
1285.00,93.12
1284.00,92.81
1283.00,92.46
1282.00,92.08
1281.00,91.66
1280.00,91.21
1279.00,90.73
1278.00,90.22
1277.00,89.69
1276.00,89.16
1275.00,88.64
1274.00,88.14
1273.00,87.68
1272.00,87.26
1271.00,86.91
1270.00,86.64
1269.00,86.44
1268.00,86.32
1267.00,86.28
1266.00,86.30
1265.00,86.36
1264.00,86.45
1263.00,86.56
1262.00,86.68
1261.00,86.80
1260.00,86.92
1259.00,87.02
1258.00,87.10
1257.00,87.14
1256.00,87.15
1255.00,87.13
1254.00,87.08
1253.00,87.00
1252.00,86.87
1251.00,86.71
1250.00,86.53
1249.00,86.33
1248.00,86.10
1247.00,85.87
1246.00,85.63
1245.00,85.39
1244.00,85.16
1243.00,84.96
1242.00,84.79
1241.00,84.65
1240.00,84.55
1239.00,84.50
1238.00,84.51
1237.00,84.57
1236.00,84.69
1235.00,84.86
1234.00,85.10
1233.00,85.38
1232.00,85.71
1231.00,86.07
1230.00,86.47
1229.00,86.89
1228.00,87.31
1227.00,87.74
1226.00,88.17
1225.00,88.59
1224.00,89.00
1223.00,89.39
1222.00,89.77
1221.00,90.11
1220.00,90.41
1219.00,90.66
1218.00,90.89
1217.00,91.06
1216.00,91.19
1215.00,91.27
1214.00,91.28
1213.00,91.22
1212.00,91.09
1211.00,90.89
1210.00,90.61
1209.00,90.24
1208.00,89.79
1207.00,89.26
1206.00,88.65
1205.00,87.98
1204.00,87.25
1203.00,86.49
1202.00,85.72
1201.00,84.93
1200.00,84.13
1199.00,83.36
1198.00,82.62
1197.00,81.92
1196.00,81.27
1195.00,80.70
1194.00,80.22
1193.00,79.83
1192.00,79.54
1191.00,79.38
1190.00,79.34
1189.00,79.40
1188.00,79.54
1187.00,79.74
1186.00,79.99
1185.00,80.23
1184.00,80.44
1183.00,80.61
1182.00,80.74
1181.00,80.81
1180.00,80.82
1179.00,80.79
1178.00,80.74
1177.00,80.66
1176.00,80.56
1175.00,80.46
1174.00,80.35
1173.00,80.22
1172.00,80.07
1171.00,79.91
1170.00,79.73
1169.00,79.53
1168.00,79.31
1167.00,79.07
1166.00,78.82
1165.00,78.56
1164.00,78.27
1163.00,77.96
1162.00,77.64
1161.00,77.28
1160.00,76.88
1159.00,76.45
1158.00,75.98
1157.00,75.45
1156.00,74.86
1155.00,74.22
1154.00,73.53
1153.00,72.79
1152.00,72.02
1151.00,71.25
1150.00,70.52
1149.00,69.83
1148.00,69.22
1147.00,68.70
1146.00,68.30
1145.00,68.00
1144.00,67.79
1143.00,67.69
1142.00,67.69
1141.00,67.77
1140.00,67.93
1139.00,68.16
1138.00,68.47
1137.00,68.84
1136.00,69.25
1135.00,69.72
1134.00,70.24
1133.00,70.80
1132.00,71.37
1131.00,71.97
1130.00,72.58
1129.00,73.18
1128.00,73.77
1127.00,74.36
1126.00,74.94
1125.00,75.50
1124.00,76.05
1123.00,76.58
1122.00,77.09
1121.00,77.59
1120.00,78.07
1119.00,78.54
1118.00,79.00
1117.00,79.45
1116.00,79.89
1115.00,80.32
1114.00,80.74
1113.00,81.15
1112.00,81.55
1111.00,81.94
1110.00,82.33
1109.00,82.71
1108.00,83.07
1107.00,83.42
1106.00,83.77
1105.00,84.10
1104.00,84.41
1103.00,84.72
1102.00,85.02
1101.00,85.30
1100.00,85.57
1099.00,85.84
1098.00,86.09
1097.00,86.34
1096.00,86.57
1095.00,86.80
1094.00,87.03
1093.00,87.24
1092.00,87.44
1091.00,87.63
1090.00,87.80
1089.00,87.97
1088.00,88.12
1087.00,88.26
1086.00,88.38
1085.00,88.48
1084.00,88.56
1083.00,88.64
1082.00,88.70
1081.00,88.76
1080.00,88.81
1079.00,88.84
1078.00,88.86
1077.00,88.87
1076.00,88.87
1075.00,88.85
1074.00,88.83
1073.00,88.79
1072.00,88.73
1071.00,88.65
1070.00,88.56
1069.00,88.46
1068.00,88.36
1067.00,88.26
1066.00,88.16
1065.00,88.07
1064.00,87.99
1063.00,87.95
1062.00,87.97
1061.00,88.05
1060.00,88.18
1059.00,88.38
1058.00,88.64
1057.00,88.96
1056.00,89.31
1055.00,89.72
1054.00,90.15
1053.00,90.60
1052.00,91.06
1051.00,91.49
1050.00,91.90
1049.00,92.27
1048.00,92.60
1047.00,92.90
1046.00,93.16
1045.00,93.40
1044.00,93.61
1043.00,93.80
1042.00,93.97
1041.00,94.11
1040.00,94.25
1039.00,94.37
1038.00,94.48
1037.00,94.58
1036.00,94.67
1035.00,94.75
1034.00,94.83
1033.00,94.90
1032.00,94.97
1031.00,95.04
1030.00,95.10
1029.00,95.16
1028.00,95.20
1027.00,95.23
1026.00,95.26
1025.00,95.29
1024.00,95.32
1023.00,95.36
1022.00,95.39
1021.00,95.42
1020.00,95.43
1019.00,95.44
1018.00,95.45
1017.00,95.45
1016.00,95.44
1015.00,95.42
1014.00,95.40
1013.00,95.35
1012.00,95.28
1011.00,95.17
1010.00,95.03
1009.00,94.84
1008.00,94.61
1007.00,94.31
1006.00,93.96
1005.00,93.55
1004.00,93.08
1003.00,92.57
1002.00,92.00
1001.00,91.40
1000.00,90.78
999.00,90.16
998.00,89.55
997.00,88.97
996.00,88.43
995.00,87.93
994.00,87.48
993.00,87.09
992.00,86.74
991.00,86.45
990.00,86.22
989.00,86.05
988.00,85.94
987.00,85.91
986.00,85.93
985.00,86.01
984.00,86.14
983.00,86.32
982.00,86.53
981.00,86.75
980.00,86.98
979.00,87.21
978.00,87.42
977.00,87.60
976.00,87.73
975.00,87.83
974.00,87.87
973.00,87.86
972.00,87.81
971.00,87.74
970.00,87.65
969.00,87.55
968.00,87.45
967.00,87.37
966.00,87.33
965.00,87.33
964.00,87.37
963.00,87.44
962.00,87.53
961.00,87.65
960.00,87.80
959.00,87.96
958.00,88.15
957.00,88.34
956.00,88.54
955.00,88.74
954.00,88.94
953.00,89.14
952.00,89.34
951.00,89.54
950.00,89.74
949.00,89.93
948.00,90.12
947.00,90.29
946.00,90.45
945.00,90.61
944.00,90.76
943.00,90.90
942.00,91.05
941.00,91.18
940.00,91.31
939.00,91.43
938.00,91.55
937.00,91.67
936.00,91.78
935.00,91.87
934.00,91.96
933.00,92.04
932.00,92.12
931.00,92.19
930.00,92.26
929.00,92.31
928.00,92.36
927.00,92.41
926.00,92.45
925.00,92.49
924.00,92.51
923.00,92.51
922.00,92.51
921.00,92.49
920.00,92.46
919.00,92.43
918.00,92.39
917.00,92.34
916.00,92.29
915.00,92.25
914.00,92.22
913.00,92.21
912.00,92.23
911.00,92.27
910.00,92.33
909.00,92.41
908.00,92.51
907.00,92.61
906.00,92.72
905.00,92.83
904.00,92.95
903.00,93.06
902.00,93.17
901.00,93.27
900.00,93.36
899.00,93.46
898.00,93.55
897.00,93.64
896.00,93.72
895.00,93.80
894.00,93.89
893.00,93.97
892.00,94.04
891.00,94.11
890.00,94.17
889.00,94.23
888.00,94.29
887.00,94.34
886.00,94.39
885.00,94.43
884.00,94.47
883.00,94.49
882.00,94.51
881.00,94.52
880.00,94.51
879.00,94.50
878.00,94.50
877.00,94.49
876.00,94.49
875.00,94.48
874.00,94.47
873.00,94.46
872.00,94.43
871.00,94.40
870.00,94.35
869.00,94.30
868.00,94.24
867.00,94.18
866.00,94.11
865.00,94.04
864.00,93.95
863.00,93.86
862.00,93.76
861.00,93.65
860.00,93.54
859.00,93.42
858.00,93.30
857.00,93.16
856.00,93.01
855.00,92.84
854.00,92.66
853.00,92.45
852.00,92.21
851.00,91.94
850.00,91.63
849.00,91.29
848.00,90.92
847.00,90.54
846.00,90.15
845.00,89.76
844.00,89.38
843.00,89.05
842.00,88.79
841.00,88.62
840.00,88.59
839.00,88.72
838.00,89.01
837.00,89.45
836.00,90.00
835.00,90.60
834.00,91.16
833.00,91.61
832.00,91.90
831.00,92.02
830.00,91.99
829.00,91.87
828.00,91.72
827.00,91.63
826.00,91.62
825.00,91.71
824.00,91.87
823.00,92.07
822.00,92.29
821.00,92.51
820.00,92.70
819.00,92.85
818.00,92.93
817.00,92.94
816.00,92.87
815.00,92.76
814.00,92.63
813.00,92.50
812.00,92.39
811.00,92.31
810.00,92.28
809.00,92.29
808.00,92.36
807.00,92.47
806.00,92.61
805.00,92.77
804.00,92.93
803.00,93.09
802.00,93.24
801.00,93.38
800.00,93.51
799.00,93.63
798.00,93.74
797.00,93.84
796.00,93.94
795.00,94.04
794.00,94.14
793.00,94.23
792.00,94.29
791.00,94.34
790.00,94.38
789.00,94.42
788.00,94.46
787.00,94.49
786.00,94.53
785.00,94.56
784.00,94.57
783.00,94.57
782.00,94.55
781.00,94.52
780.00,94.49
779.00,94.45
778.00,94.41
777.00,94.37
776.00,94.31
775.00,94.24
774.00,94.16
773.00,94.06
772.00,93.94
771.00,93.79
770.00,93.62
769.00,93.41
768.00,93.19
767.00,92.94
766.00,92.66
765.00,92.35
764.00,92.03
763.00,91.69
762.00,91.33
761.00,90.95
760.00,90.53
759.00,90.10
758.00,89.65
757.00,89.18
756.00,88.69
755.00,88.19
754.00,87.70
753.00,87.25
752.00,86.88
751.00,86.65
750.00,86.62
749.00,86.85
748.00,87.35
747.00,88.10
746.00,89.00
745.00,89.94
744.00,90.81
743.00,91.54
742.00,92.12
741.00,92.56
740.00,92.89
739.00,93.14
738.00,93.34
737.00,93.49
736.00,93.62
735.00,93.73
734.00,93.82
733.00,93.91
732.00,94.00
731.00,94.10
730.00,94.20
729.00,94.32
728.00,94.43
727.00,94.54
726.00,94.65
725.00,94.75
724.00,94.84
723.00,94.94
722.00,95.03
721.00,95.10
720.00,95.14
719.00,95.16
718.00,95.17
717.00,95.19
716.00,95.22
715.00,95.25
714.00,95.27
713.00,95.29
712.00,95.31
711.00,95.32
710.00,95.34
709.00,95.36
708.00,95.37
707.00,95.39
706.00,95.40
705.00,95.39
704.00,95.37
703.00,95.35
702.00,95.34
701.00,95.33
700.00,95.33
699.00,95.33
698.00,95.34
697.00,95.36
696.00,95.38
695.00,95.39
694.00,95.39
693.00,95.39
692.00,95.40
691.00,95.40
690.00,95.42
689.00,95.43
688.00,95.44
687.00,95.45
686.00,95.46
685.00,95.47
684.00,95.47
683.00,95.45
682.00,95.44
681.00,95.43
680.00,95.45
679.00,95.48
678.00,95.50
677.00,95.49
676.00,95.47
675.00,95.45
674.00,95.43
673.00,95.43
672.00,95.44
671.00,95.45
670.00,95.44
669.00,95.38
668.00,95.26
667.00,95.16
666.00,95.13
665.00,95.16
664.00,95.18
663.00,95.18
662.00,95.16
661.00,95.14
660.00,95.12
659.00,95.09
658.00,95.07
657.00,95.05
656.00,95.03
655.00,94.99
654.00,94.96
653.00,94.97
652.00,94.98
651.00,94.99
650.00,94.98
