Created as New Dataset,PMMA Scientific
cm-1,%T
4000.00,99.50
3999.00,99.50
3998.00,99.50
3997.00,99.50
3996.00,99.49
3995.00,99.49
3994.00,99.49
3993.00,99.49
3992.00,99.49
3991.00,99.49
3990.00,99.49
3989.00,99.49
3988.00,99.49
3987.00,99.49
3986.00,99.49
3985.00,99.49
3984.00,99.49
3983.00,99.49
3982.00,99.49
3981.00,99.49
3980.00,99.49
3979.00,99.49
3978.00,99.49
3977.00,99.49
3976.00,99.49
3975.00,99.49
3974.00,99.49
3973.00,99.49
3972.00,99.50
3971.00,99.50
3970.00,99.50
3969.00,99.50
3968.00,99.50
3967.00,99.50
3966.00,99.50
3965.00,99.50
3964.00,99.50
3963.00,99.50
3962.00,99.50
3961.00,99.50
3960.00,99.49
3959.00,99.50
3958.00,99.49
3957.00,99.49
3956.00,99.49
3955.00,99.49
3954.00,99.49
3953.00,99.49
3952.00,99.50
3951.00,99.50
3950.00,99.50
3949.00,99.50
3948.00,99.49
3947.00,99.49
3946.00,99.49
3945.00,99.49
3944.00,99.49
3943.00,99.48
3942.00,99.48
3941.00,99.48
3940.00,99.48
3939.00,99.48
3938.00,99.48
3937.00,99.48
3936.00,99.49
3935.00,99.49
3934.00,99.49
3933.00,99.49
3932.00,99.49
3931.00,99.49
3930.00,99.48
3929.00,99.48
3928.00,99.48
3927.00,99.48
3926.00,99.48
3925.00,99.47
3924.00,99.48
3923.00,99.48
3922.00,99.48
3921.00,99.48
3920.00,99.49
3919.00,99.49
3918.00,99.49
3917.00,99.49
3916.00,99.49
3915.00,99.49
3914.00,99.49
3913.00,99.48
3912.00,99.48
3911.00,99.48
3910.00,99.48
3909.00,99.48
3908.00,99.48
3907.00,99.48
3906.00,99.48
3905.00,99.48
3904.00,99.48
3903.00,99.48
3902.00,99.48
3901.00,99.47
3900.00,99.47
3899.00,99.47
3898.00,99.47
3897.00,99.48
3896.00,99.48
3895.00,99.48
3894.00,99.48
3893.00,99.48
3892.00,99.47
3891.00,99.47
3890.00,99.47
3889.00,99.47
3888.00,99.47
3887.00,99.47
3886.00,99.47
3885.00,99.47
3884.00,99.47
3883.00,99.48
3882.00,99.48
3881.00,99.48
3880.00,99.48
3879.00,99.48
3878.00,99.47
3877.00,99.47
3876.00,99.46
3875.00,99.46
3874.00,99.46
3873.00,99.46
3872.00,99.46
3871.00,99.46
3870.00,99.47
3869.00,99.47
3868.00,99.47
3867.00,99.47
3866.00,99.47
3865.00,99.46
3864.00,99.46
3863.00,99.47
3862.00,99.47
3861.00,99.47
3860.00,99.47
3859.00,99.46
3858.00,99.46
3857.00,99.45
3856.00,99.45
3855.00,99.45
3854.00,99.45
3853.00,99.45
3852.00,99.45
3851.00,99.45
3850.00,99.45
3849.00,99.45
3848.00,99.46
3847.00,99.46
3846.00,99.46
3845.00,99.46
3844.00,99.45
3843.00,99.45
3842.00,99.44
3841.00,99.44
3840.00,99.44
3839.00,99.43
3838.00,99.43
3837.00,99.43
3836.00,99.43
3835.00,99.43
3834.00,99.43
3833.00,99.44
3832.00,99.44
3831.00,99.44
3830.00,99.44
3829.00,99.45
3828.00,99.45
3827.00,99.45
3826.00,99.44
3825.00,99.44
3824.00,99.44
3823.00,99.44
3822.00,99.44
3821.00,99.43
3820.00,99.43
3819.00,99.43
3818.00,99.43
3817.00,99.43
3816.00,99.43
3815.00,99.44
3814.00,99.44
3813.00,99.44
3812.00,99.44
3811.00,99.44
3810.00,99.44
3809.00,99.44
3808.00,99.44
3807.00,99.43
3806.00,99.43
3805.00,99.43
3804.00,99.42
3803.00,99.42
3802.00,99.42
3801.00,99.42
3800.00,99.42
3799.00,99.42
3798.00,99.42
3797.00,99.42
3796.00,99.43
3795.00,99.43
3794.00,99.44
3793.00,99.44
3792.00,99.44
3791.00,99.44
3790.00,99.44
3789.00,99.44
3788.00,99.43
3787.00,99.43
3786.00,99.43
3785.00,99.43
3784.00,99.42
3783.00,99.42
3782.00,99.41
3781.00,99.41
3780.00,99.41
3779.00,99.42
3778.00,99.42
3777.00,99.43
3776.00,99.42
3775.00,99.42
3774.00,99.42
3773.00,99.41
3772.00,99.41
3771.00,99.41
3770.00,99.41
3769.00,99.41
3768.00,99.41
3767.00,99.41
3766.00,99.41
3765.00,99.41
3764.00,99.41
3763.00,99.41
3762.00,99.41
3761.00,99.41
3760.00,99.41
3759.00,99.40
3758.00,99.40
3757.00,99.40
3756.00,99.40
3755.00,99.39
3754.00,99.39
3753.00,99.39
3752.00,99.38
3751.00,99.38
3750.00,99.38
3749.00,99.38
3748.00,99.38
3747.00,99.38
3746.00,99.38
3745.00,99.38
3744.00,99.39
3743.00,99.39
3742.00,99.39
3741.00,99.39
3740.00,99.39
3739.00,99.39
3738.00,99.40
3737.00,99.40
3736.00,99.40
3735.00,99.40
3734.00,99.41
3733.00,99.41
3732.00,99.41
3731.00,99.42
3730.00,99.42
3729.00,99.42
3728.00,99.41
3727.00,99.41
3726.00,99.41
3725.00,99.41
3724.00,99.41
3723.00,99.41
3722.00,99.41
3721.00,99.41
3720.00,99.41
3719.00,99.41
3718.00,99.41
3717.00,99.41
3716.00,99.41
3715.00,99.41
3714.00,99.40
3713.00,99.40
3712.00,99.40
3711.00,99.40
3710.00,99.40
3709.00,99.40
3708.00,99.41
3707.00,99.41
3706.00,99.41
3705.00,99.40
3704.00,99.40
3703.00,99.40
3702.00,99.40
3701.00,99.40
3700.00,99.40
3699.00,99.40
3698.00,99.40
3697.00,99.39
3696.00,99.39
3695.00,99.38
3694.00,99.38
3693.00,99.38
3692.00,99.37
3691.00,99.36
3690.00,99.36
3689.00,99.36
3688.00,99.36
3687.00,99.36
3686.00,99.36
3685.00,99.36
3684.00,99.36
3683.00,99.35
3682.00,99.35
3681.00,99.34
3680.00,99.33
3679.00,99.32
3678.00,99.32
3677.00,99.31
3676.00,99.30
3675.00,99.29
3674.00,99.29
3673.00,99.29
3672.00,99.29
3671.00,99.30
3670.00,99.30
3669.00,99.29
3668.00,99.29
3667.00,99.29
3666.00,99.28
3665.00,99.28
3664.00,99.28
3663.00,99.27
3662.00,99.27
3661.00,99.26
3660.00,99.25
3659.00,99.24
3658.00,99.23
3657.00,99.22
3656.00,99.22
3655.00,99.21
3654.00,99.21
3653.00,99.21
3652.00,99.21
3651.00,99.20
3650.00,99.20
3649.00,99.19
3648.00,99.19
3647.00,99.18
3646.00,99.18
3645.00,99.18
3644.00,99.18
3643.00,99.18
3642.00,99.18
3641.00,99.18
3640.00,99.17
3639.00,99.17
3638.00,99.16
3637.00,99.16
3636.00,99.15
3635.00,99.15
3634.00,99.14
3633.00,99.14
3632.00,99.14
3631.00,99.13
3630.00,99.13
3629.00,99.12
3628.00,99.12
3627.00,99.12
3626.00,99.12
3625.00,99.12
3624.00,99.12
3623.00,99.12
3622.00,99.12
3621.00,99.13
3620.00,99.13
3619.00,99.13
3618.00,99.12
3617.00,99.12
3616.00,99.11
3615.00,99.11
3614.00,99.11
3613.00,99.11
3612.00,99.12
3611.00,99.12
3610.00,99.12
3609.00,99.12
3608.00,99.12
3607.00,99.13
3606.00,99.13
3605.00,99.14
3604.00,99.14
3603.00,99.14
3602.00,99.14
3601.00,99.14
3600.00,99.13
3599.00,99.13
3598.00,99.14
3597.00,99.14
3596.00,99.15
3595.00,99.15
3594.00,99.16
3593.00,99.16
3592.00,99.16
3591.00,99.16
3590.00,99.16
3589.00,99.16
3588.00,99.16
3587.00,99.16
3586.00,99.16
3585.00,99.16
3584.00,99.16
3583.00,99.16
3582.00,99.17
3581.00,99.17
3580.00,99.16
3579.00,99.16
3578.00,99.16
3577.00,99.17
3576.00,99.17
3575.00,99.16
3574.00,99.16
3573.00,99.16
3572.00,99.15
3571.00,99.15
3570.00,99.15
3569.00,99.14
3568.00,99.14
3567.00,99.14
3566.00,99.14
3565.00,99.14
3564.00,99.13
3563.00,99.13
3562.00,99.13
3561.00,99.13
3560.00,99.12
3559.00,99.12
3558.00,99.12
3557.00,99.12
3556.00,99.11
3555.00,99.11
3554.00,99.11
3553.00,99.11
3552.00,99.11
3551.00,99.10
3550.00,99.11
3549.00,99.11
3548.00,99.11
3547.00,99.11
3546.00,99.11
3545.00,99.11
3544.00,99.11
3543.00,99.11
3542.00,99.11
3541.00,99.12
3540.00,99.12
3539.00,99.13
3538.00,99.13
3537.00,99.13
3536.00,99.13
3535.00,99.13
3534.00,99.13
3533.00,99.13
3532.00,99.14
3531.00,99.15
3530.00,99.15
3529.00,99.16
3528.00,99.16
3527.00,99.16
3526.00,99.16
3525.00,99.16
3524.00,99.16
3523.00,99.16
3522.00,99.16
3521.00,99.16
3520.00,99.17
3519.00,99.17
3518.00,99.17
3517.00,99.17
3516.00,99.18
3515.00,99.18
3514.00,99.18
3513.00,99.18
3512.00,99.18
3511.00,99.18
3510.00,99.18
3509.00,99.19
3508.00,99.19
3507.00,99.19
3506.00,99.19
3505.00,99.19
3504.00,99.19
3503.00,99.19
3502.00,99.19
3501.00,99.19
3500.00,99.19
3499.00,99.19
3498.00,99.20
3497.00,99.20
3496.00,99.20
3495.00,99.20
3494.00,99.20
3493.00,99.19
3492.00,99.19
3491.00,99.19
3490.00,99.19
3489.00,99.19
3488.00,99.19
3487.00,99.18
3486.00,99.18
3485.00,99.18
3484.00,99.19
3483.00,99.19
3482.00,99.19
3481.00,99.19
3480.00,99.19
3479.00,99.18
3478.00,99.18
3477.00,99.17
3476.00,99.17
3475.00,99.17
3474.00,99.17
3473.00,99.17
3472.00,99.18
3471.00,99.18
3470.00,99.18
3469.00,99.18
3468.00,99.18
3467.00,99.17
3466.00,99.16
3465.00,99.15
3464.00,99.14
3463.00,99.14
3462.00,99.14
3461.00,99.14
3460.00,99.13
3459.00,99.13
3458.00,99.12
3457.00,99.12
3456.00,99.11
3455.00,99.11
3454.00,99.11
3453.00,99.10
3452.00,99.10
3451.00,99.09
3450.00,99.09
3449.00,99.08
3448.00,99.08
3447.00,99.08
3446.00,99.08
3445.00,99.07
3444.00,99.07
3443.00,99.07
3442.00,99.07
3441.00,99.07
3440.00,99.08
3439.00,99.08
3438.00,99.09
3437.00,99.10
3436.00,99.10
3435.00,99.10
3434.00,99.10
3433.00,99.10
3432.00,99.11
3431.00,99.11
3430.00,99.11
3429.00,99.11
3428.00,99.12
3427.00,99.12
3426.00,99.12
3425.00,99.12
3424.00,99.13
3423.00,99.13
3422.00,99.14
3421.00,99.14
3420.00,99.15
3419.00,99.15
3418.00,99.16
3417.00,99.17
3416.00,99.17
3415.00,99.18
3414.00,99.19
3413.00,99.19
3412.00,99.19
3411.00,99.20
3410.00,99.20
3409.00,99.20
3408.00,99.21
3407.00,99.21
3406.00,99.21
3405.00,99.22
3404.00,99.22
3403.00,99.23
3402.00,99.23
3401.00,99.23
3400.00,99.23
3399.00,99.23
3398.00,99.22
3397.00,99.22
3396.00,99.22
3395.00,99.22
3394.00,99.23
3393.00,99.23
3392.00,99.23
3391.00,99.23
3390.00,99.23
3389.00,99.22
3388.00,99.22
3387.00,99.22
3386.00,99.22
3385.00,99.22
3384.00,99.22
3383.00,99.22
3382.00,99.22
3381.00,99.22
3380.00,99.22
3379.00,99.22
3378.00,99.22
3377.00,99.21
3376.00,99.21
3375.00,99.21
3374.00,99.22
3373.00,99.22
3372.00,99.22
3371.00,99.22
3370.00,99.23
3369.00,99.23
3368.00,99.23
3367.00,99.23
3366.00,99.23
3365.00,99.22
3364.00,99.22
3363.00,99.21
3362.00,99.21
3361.00,99.21
3360.00,99.21
3359.00,99.21
3358.00,99.21
3357.00,99.21
3356.00,99.21
3355.00,99.21
3354.00,99.21
3353.00,99.21
3352.00,99.20
3351.00,99.20
3350.00,99.20
3349.00,99.19
3348.00,99.19
3347.00,99.19
3346.00,99.19
3345.00,99.19
3344.00,99.19
3343.00,99.19
3342.00,99.19
3341.00,99.19
3340.00,99.19
3339.00,99.19
3338.00,99.18
3337.00,99.18
3336.00,99.18
3335.00,99.18
3334.00,99.18
3333.00,99.18
3332.00,99.18
3331.00,99.18
3330.00,99.18
3329.00,99.18
3328.00,99.18
3327.00,99.17
3326.00,99.17
3325.00,99.17
3324.00,99.17
3323.00,99.17
3322.00,99.17
3321.00,99.17
3320.00,99.17
3319.00,99.17
3318.00,99.17
3317.00,99.17
3316.00,99.16
3315.00,99.16
3314.00,99.16
3313.00,99.16
3312.00,99.16
3311.00,99.16
3310.00,99.16
3309.00,99.16
3308.00,99.16
3307.00,99.16
3306.00,99.16
3305.00,99.16
3304.00,99.15
3303.00,99.15
3302.00,99.15
3301.00,99.15
3300.00,99.14
3299.00,99.14
3298.00,99.14
3297.00,99.14
3296.00,99.15
3295.00,99.15
3294.00,99.15
3293.00,99.15
3292.00,99.15
3291.00,99.15
3290.00,99.16
3289.00,99.16
3288.00,99.16
3287.00,99.15
3286.00,99.15
3285.00,99.14
3284.00,99.14
3283.00,99.13
3282.00,99.13
3281.00,99.13
3280.00,99.13
3279.00,99.13
3278.00,99.14
3277.00,99.14
3276.00,99.14
3275.00,99.14
3274.00,99.13
3273.00,99.13
3272.00,99.13
3271.00,99.13
3270.00,99.14
3269.00,99.14
3268.00,99.14
3267.00,99.14
3266.00,99.14
3265.00,99.14
3264.00,99.14
3263.00,99.14
3262.00,99.14
3261.00,99.14
3260.00,99.14
3259.00,99.14
3258.00,99.14
3257.00,99.14
3256.00,99.13
3255.00,99.13
3254.00,99.14
3253.00,99.14
3252.00,99.14
3251.00,99.14
3250.00,99.14
3249.00,99.14
3248.00,99.14
3247.00,99.14
3246.00,99.14
3245.00,99.14
3244.00,99.14
3243.00,99.14
3242.00,99.14
3241.00,99.14
3240.00,99.13
3239.00,99.13
3238.00,99.13
3237.00,99.14
3236.00,99.14
3235.00,99.15
3234.00,99.15
3233.00,99.15
3232.00,99.15
3231.00,99.15
3230.00,99.15
3229.00,99.16
3228.00,99.15
3227.00,99.15
3226.00,99.15
3225.00,99.14
3224.00,99.15
3223.00,99.15
3222.00,99.16
3221.00,99.16
3220.00,99.16
3219.00,99.16
3218.00,99.16
3217.00,99.16
3216.00,99.16
3215.00,99.16
3214.00,99.16
3213.00,99.16
3212.00,99.16
3211.00,99.16
3210.00,99.16
3209.00,99.16
3208.00,99.16
3207.00,99.16
3206.00,99.16
3205.00,99.16
3204.00,99.16
3203.00,99.16
3202.00,99.16
3201.00,99.17
3200.00,99.17
3199.00,99.17
3198.00,99.17
3197.00,99.17
3196.00,99.17
3195.00,99.17
3194.00,99.17
3193.00,99.17
3192.00,99.17
3191.00,99.17
3190.00,99.16
3189.00,99.16
3188.00,99.17
3187.00,99.17
3186.00,99.17
3185.00,99.17
3184.00,99.17
3183.00,99.17
3182.00,99.17
3181.00,99.17
3180.00,99.17
3179.00,99.17
3178.00,99.17
3177.00,99.17
3176.00,99.17
3175.00,99.17
3174.00,99.17
3173.00,99.17
3172.00,99.17
3171.00,99.17
3170.00,99.17
3169.00,99.17
3168.00,99.17
3167.00,99.17
3166.00,99.17
3165.00,99.17
3164.00,99.17
3163.00,99.17
3162.00,99.17
3161.00,99.17
3160.00,99.18
3159.00,99.17
3158.00,99.17
3157.00,99.18
3156.00,99.18
3155.00,99.18
3154.00,99.18
3153.00,99.19
3152.00,99.19
3151.00,99.19
3150.00,99.19
3149.00,99.18
3148.00,99.18
3147.00,99.18
3146.00,99.18
3145.00,99.18
3144.00,99.18
3143.00,99.18
3142.00,99.19
3141.00,99.19
3140.00,99.19
3139.00,99.19
3138.00,99.18
3137.00,99.18
3136.00,99.19
3135.00,99.19
3134.00,99.20
3133.00,99.20
3132.00,99.19
3131.00,99.19
3130.00,99.19
3129.00,99.18
3128.00,99.18
3127.00,99.18
3126.00,99.18
3125.00,99.18
3124.00,99.18
3123.00,99.18
3122.00,99.18
3121.00,99.18
3120.00,99.18
3119.00,99.19
3118.00,99.19
3117.00,99.19
3116.00,99.19
3115.00,99.19
3114.00,99.19
3113.00,99.18
3112.00,99.18
3111.00,99.18
3110.00,99.18
3109.00,99.18
3108.00,99.18
3107.00,99.17
3106.00,99.18
3105.00,99.18
3104.00,99.18
3103.00,99.18
3102.00,99.18
3101.00,99.18
3100.00,99.18
3099.00,99.18
3098.00,99.17
3097.00,99.17
3096.00,99.17
3095.00,99.17
3094.00,99.17
3093.00,99.17
3092.00,99.16
3091.00,99.16
3090.00,99.16
3089.00,99.16
3088.00,99.15
3087.00,99.15
3086.00,99.15
3085.00,99.16
3084.00,99.16
3083.00,99.17
3082.00,99.16
3081.00,99.16
3080.00,99.15
3079.00,99.15
3078.00,99.14
3077.00,99.14
3076.00,99.14
3075.00,99.14
3074.00,99.13
3073.00,99.13
3072.00,99.12
3071.00,99.12
3070.00,99.12
3069.00,99.12
3068.00,99.11
3067.00,99.11
3066.00,99.10
3065.00,99.09
3064.00,99.09
3063.00,99.08
3062.00,99.07
3061.00,99.06
3060.00,99.05
3059.00,99.04
3058.00,99.03
3057.00,99.02
3056.00,99.01
3055.00,98.99
3054.00,98.98
3053.00,98.96
3052.00,98.95
3051.00,98.93
3050.00,98.92
3049.00,98.90
3048.00,98.87
3047.00,98.85
3046.00,98.82
3045.00,98.79
3044.00,98.77
3043.00,98.74
3042.00,98.71
3041.00,98.68
3040.00,98.65
3039.00,98.62
3038.00,98.58
3037.00,98.54
3036.00,98.50
3035.00,98.46
3034.00,98.42
3033.00,98.38
3032.00,98.34
3031.00,98.29
3030.00,98.25
3029.00,98.20
3028.00,98.15
3027.00,98.11
3026.00,98.06
3025.00,98.01
3024.00,97.96
3023.00,97.91
3022.00,97.85
3021.00,97.80
3020.00,97.74
3019.00,97.69
3018.00,97.63
3017.00,97.58
3016.00,97.52
3015.00,97.46
3014.00,97.40
3013.00,97.34
3012.00,97.28
3011.00,97.22
3010.00,97.16
3009.00,97.09
3008.00,97.03
3007.00,96.96
3006.00,96.90
3005.00,96.84
3004.00,96.78
3003.00,96.72
3002.00,96.67
3001.00,96.62
3000.00,96.57
2999.00,96.54
2998.00,96.51
2997.00,96.48
2996.00,96.47
2995.00,96.47
2994.00,96.47
2993.00,96.48
2992.00,96.50
2991.00,96.53
2990.00,96.57
2989.00,96.61
2988.00,96.66
2987.00,96.72
2986.00,96.78
2985.00,96.84
2984.00,96.91
2983.00,96.97
2982.00,97.04
2981.00,97.11
2980.00,97.17
2979.00,97.22
2978.00,97.27
2977.00,97.31
2976.00,97.33
2975.00,97.34
2974.00,97.33
2973.00,97.31
2972.00,97.27
2971.00,97.23
2970.00,97.17
2969.00,97.10
2968.00,97.02
2967.00,96.92
2966.00,96.81
2965.00,96.69
2964.00,96.56
2963.00,96.41
2962.00,96.26
2961.00,96.10
2960.00,95.94
2959.00,95.77
2958.00,95.60
2957.00,95.43
2956.00,95.28
2955.00,95.14
2954.00,95.02
2953.00,94.92
2952.00,94.86
2951.00,94.83
2950.00,94.84
2949.00,94.89
2948.00,94.98
2947.00,95.11
2946.00,95.25
2945.00,95.40
2944.00,95.56
2943.00,95.71
2942.00,95.84
2941.00,95.95
2940.00,96.05
2939.00,96.14
2938.00,96.21
2937.00,96.27
2936.00,96.33
2935.00,96.37
2934.00,96.41
2933.00,96.44
2932.00,96.48
2931.00,96.52
2930.00,96.55
2929.00,96.59
2928.00,96.63
2927.00,96.67
2926.00,96.71
2925.00,96.76
2924.00,96.80
2923.00,96.84
2922.00,96.88
2921.00,96.93
2920.00,96.97
2919.00,97.02
2918.00,97.06
2917.00,97.10
2916.00,97.14
2915.00,97.18
2914.00,97.22
2913.00,97.26
2912.00,97.30
2911.00,97.34
2910.00,97.37
2909.00,97.40
2908.00,97.44
2907.00,97.47
2906.00,97.51
2905.00,97.55
2904.00,97.59
2903.00,97.63
2902.00,97.67
2901.00,97.70
2900.00,97.74
2899.00,97.77
2898.00,97.80
2897.00,97.83
2896.00,97.86
2895.00,97.89
2894.00,97.91
2893.00,97.93
2892.00,97.95
2891.00,97.97
2890.00,97.99
2889.00,98.02
2888.00,98.04
2887.00,98.06
2886.00,98.08
2885.00,98.11
2884.00,98.14
2883.00,98.18
2882.00,98.21
2881.00,98.25
2880.00,98.28
2879.00,98.31
2878.00,98.34
2877.00,98.37
2876.00,98.40
2875.00,98.42
2874.00,98.45
2873.00,98.47
2872.00,98.49
2871.00,98.51
2870.00,98.53
2869.00,98.55
2868.00,98.56
2867.00,98.57
2866.00,98.58
2865.00,98.58
2864.00,98.58
2863.00,98.58
2862.00,98.58
2861.00,98.58
2860.00,98.57
2859.00,98.57
2858.00,98.56
2857.00,98.55
2856.00,98.55
2855.00,98.53
2854.00,98.52
2853.00,98.51
2852.00,98.50
2851.00,98.48
2850.00,98.47
2849.00,98.45
2848.00,98.44
2847.00,98.43
2846.00,98.43
2845.00,98.43
2844.00,98.43
2843.00,98.43
2842.00,98.44
2841.00,98.46
2840.00,98.48
2839.00,98.51
2838.00,98.54
2837.00,98.58
2836.00,98.62
2835.00,98.65
2834.00,98.68
2833.00,98.71
2832.00,98.74
2831.00,98.77
2830.00,98.80
2829.00,98.82
2828.00,98.85
2827.00,98.87
2826.00,98.89
2825.00,98.90
2824.00,98.92
2823.00,98.93
2822.00,98.94
2821.00,98.96
2820.00,98.97
2819.00,98.98
2818.00,98.99
2817.00,99.00
2816.00,99.01
2815.00,99.02
2814.00,99.03
2813.00,99.04
2812.00,99.05
2811.00,99.05
2810.00,99.06
2809.00,99.06
2808.00,99.07
2807.00,99.08
2806.00,99.08
2805.00,99.08
2804.00,99.09
2803.00,99.09
2802.00,99.09
2801.00,99.10
2800.00,99.10
2799.00,99.10
2798.00,99.10
2797.00,99.11
2796.00,99.11
2795.00,99.11
2794.00,99.11
2793.00,99.11
2792.00,99.11
2791.00,99.12
2790.00,99.12
2789.00,99.12
2788.00,99.12
2787.00,99.12
2786.00,99.12
2785.00,99.12
2784.00,99.12
2783.00,99.13
2782.00,99.13
2781.00,99.13
2780.00,99.13
2779.00,99.13
2778.00,99.13
2777.00,99.13
2776.00,99.13
2775.00,99.13
2774.00,99.13
2773.00,99.13
2772.00,99.13
2771.00,99.13
2770.00,99.13
2769.00,99.13
2768.00,99.13
2767.00,99.13
2766.00,99.14
2765.00,99.14
2764.00,99.14
2763.00,99.14
2762.00,99.14
2761.00,99.14
2760.00,99.14
2759.00,99.15
2758.00,99.15
2757.00,99.15
2756.00,99.15
2755.00,99.15
2754.00,99.15
2753.00,99.15
2752.00,99.16
2751.00,99.16
2750.00,99.16
2749.00,99.16
2748.00,99.16
2747.00,99.16
2746.00,99.16
2745.00,99.16
2744.00,99.16
2743.00,99.16
2742.00,99.16
2741.00,99.16
2740.00,99.17
2739.00,99.17
2738.00,99.17
2737.00,99.17
2736.00,99.17
2735.00,99.17
2734.00,99.18
2733.00,99.18
2732.00,99.18
2731.00,99.18
2730.00,99.18
2729.00,99.18
2728.00,99.18
2727.00,99.18
2726.00,99.18
2725.00,99.18
2724.00,99.19
2723.00,99.19
2722.00,99.19
2721.00,99.19
2720.00,99.20
2719.00,99.20
2718.00,99.20
2717.00,99.20
2716.00,99.20
2715.00,99.20
2714.00,99.20
2713.00,99.21
2712.00,99.20
2711.00,99.20
2710.00,99.20
2709.00,99.20
2708.00,99.20
2707.00,99.20
2706.00,99.20
2705.00,99.20
2704.00,99.21
2703.00,99.21
2702.00,99.21
2701.00,99.21
2700.00,99.21
2699.00,99.21
2698.00,99.21
2697.00,99.21
2696.00,99.20
2695.00,99.20
2694.00,99.20
2693.00,99.20
2692.00,99.20
2691.00,99.21
2690.00,99.21
2689.00,99.21
2688.00,99.21
2687.00,99.21
2686.00,99.21
2685.00,99.21
2684.00,99.21
2683.00,99.21
2682.00,99.21
2681.00,99.21
2680.00,99.21
2679.00,99.21
2678.00,99.21
2677.00,99.21
2676.00,99.20
2675.00,99.20
2674.00,99.20
2673.00,99.20
2672.00,99.20
2671.00,99.20
2670.00,99.20
2669.00,99.20
2668.00,99.20
2667.00,99.19
2666.00,99.19
2665.00,99.18
2664.00,99.17
2663.00,99.16
2662.00,99.15
2661.00,99.14
2660.00,99.13
2659.00,99.12
2658.00,99.11
2657.00,99.11
2656.00,99.10
2655.00,99.09
2654.00,99.09
2653.00,99.08
2652.00,99.08
2651.00,99.07
2650.00,99.07
2649.00,99.07
2648.00,99.07
2647.00,99.06
2646.00,99.06
2645.00,99.06
2644.00,99.06
2643.00,99.06
2642.00,99.06
2641.00,99.06
2640.00,99.06
2639.00,99.06
2638.00,99.06
2637.00,99.06
2636.00,99.06
2635.00,99.06
2634.00,99.06
2633.00,99.06
2632.00,99.06
2631.00,99.06
2630.00,99.06
2629.00,99.06
2628.00,99.06
2627.00,99.06
2626.00,99.06
2625.00,99.07
2624.00,99.06
2623.00,99.06
2622.00,99.06
2621.00,99.06
2620.00,99.06
2619.00,99.06
2618.00,99.06
2617.00,99.07
2616.00,99.07
2615.00,99.07
2614.00,99.07
2613.00,99.07
2612.00,99.06
2611.00,99.06
2610.00,99.06
2609.00,99.06
2608.00,99.05
2607.00,99.05
2606.00,99.05
2605.00,99.06
2604.00,99.06
2603.00,99.06
2602.00,99.06
2601.00,99.07
2600.00,99.07
2599.00,99.07
2598.00,99.07
2597.00,99.07
2596.00,99.06
2595.00,99.06
2594.00,99.06
2593.00,99.06
2592.00,99.06
2591.00,99.07
2590.00,99.07
2589.00,99.07
2588.00,99.07
2587.00,99.08
2586.00,99.08
2585.00,99.08
2584.00,99.08
2583.00,99.08
2582.00,99.09
2581.00,99.09
2580.00,99.09
2579.00,99.09
2578.00,99.09
2577.00,99.09
2576.00,99.09
2575.00,99.09
2574.00,99.10
2573.00,99.10
2572.00,99.10
2571.00,99.10
2570.00,99.10
2569.00,99.10
2568.00,99.10
2567.00,99.11
2566.00,99.10
2565.00,99.10
2564.00,99.11
2563.00,99.11
2562.00,99.12
2561.00,99.12
2560.00,99.12
2559.00,99.11
2558.00,99.11
2557.00,99.11
2556.00,99.12
2555.00,99.12
2554.00,99.12
2553.00,99.12
2552.00,99.12
2551.00,99.12
2550.00,99.12
2549.00,99.12
2548.00,99.13
2547.00,99.13
2546.00,99.14
2545.00,99.14
2544.00,99.13
2543.00,99.13
2542.00,99.13
2541.00,99.13
2540.00,99.13
2539.00,99.14
2538.00,99.14
2537.00,99.14
2536.00,99.14
2535.00,99.14
2534.00,99.14
2533.00,99.14
2532.00,99.14
2531.00,99.14
2530.00,99.15
2529.00,99.15
2528.00,99.15
2527.00,99.16
2526.00,99.16
2525.00,99.16
2524.00,99.16
2523.00,99.16
2522.00,99.16
2521.00,99.16
2520.00,99.16
2519.00,99.16
2518.00,99.17
2517.00,99.17
2516.00,99.17
2515.00,99.17
2514.00,99.17
2513.00,99.17
2512.00,99.18
2511.00,99.18
2510.00,99.18
2509.00,99.18
2508.00,99.18
2507.00,99.18
2506.00,99.18
2505.00,99.18
2504.00,99.18
2503.00,99.18
2502.00,99.19
2501.00,99.19
2500.00,99.19
2499.00,99.19
2498.00,99.19
2497.00,99.18
2496.00,99.18
2495.00,99.18
2494.00,99.18
2493.00,99.18
2492.00,99.18
2491.00,99.18
2490.00,99.19
2489.00,99.19
2488.00,99.19
2487.00,99.19
2486.00,99.19
2485.00,99.19
2484.00,99.19
2483.00,99.19
2482.00,99.19
2481.00,99.19
2480.00,99.19
2479.00,99.19
2478.00,99.19
2477.00,99.19
2476.00,99.18
2475.00,99.18
2474.00,99.18
2473.00,99.17
2472.00,99.17
2471.00,99.18
2470.00,99.18
2469.00,99.18
2468.00,99.18
2467.00,99.18
2466.00,99.18
2465.00,99.18
2464.00,99.17
2463.00,99.17
2462.00,99.17
2461.00,99.17
2460.00,99.17
2459.00,99.17
2458.00,99.17
2457.00,99.16
2456.00,99.15
2455.00,99.15
2454.00,99.15
2453.00,99.15
2452.00,99.15
2451.00,99.15
2450.00,99.15
2449.00,99.15
2448.00,99.15
2447.00,99.15
2446.00,99.15
2445.00,99.15
2444.00,99.15
2443.00,99.16
2442.00,99.16
2441.00,99.16
2440.00,99.17
2439.00,99.17
2438.00,99.17
2437.00,99.17
2436.00,99.17
2435.00,99.17
2434.00,99.17
2433.00,99.17
2432.00,99.17
2431.00,99.17
2430.00,99.17
2429.00,99.18
2428.00,99.18
2427.00,99.18
2426.00,99.18
2425.00,99.18
2424.00,99.18
2423.00,99.18
2422.00,99.18
2421.00,99.18
2420.00,99.17
2419.00,99.17
2418.00,99.17
2417.00,99.17
2416.00,99.17
2415.00,99.17
2414.00,99.17
2413.00,99.18
2412.00,99.18
2411.00,99.19
2410.00,99.19
2409.00,99.19
2408.00,99.19
2407.00,99.20
2406.00,99.21
2405.00,99.22
2404.00,99.23
2403.00,99.23
2402.00,99.23
2401.00,99.23
2400.00,99.23
2399.00,99.23
2398.00,99.23
2397.00,99.24
2396.00,99.24
2395.00,99.24
2394.00,99.24
2393.00,99.24
2392.00,99.24
2391.00,99.24
2390.00,99.24
2389.00,99.24
2388.00,99.24
2387.00,99.24
2386.00,99.24
2385.00,99.24
2384.00,99.25
2383.00,99.25
2382.00,99.26
2381.00,99.27
2380.00,99.28
2379.00,99.28
2378.00,99.29
2377.00,99.29
2376.00,99.28
2375.00,99.27
2374.00,99.27
2373.00,99.27
2372.00,99.27
2371.00,99.28
2370.00,99.27
2369.00,99.27
2368.00,99.26
2367.00,99.27
2366.00,99.27
2365.00,99.26
2364.00,99.25
2363.00,99.23
2362.00,99.23
2361.00,99.22
2360.00,99.22
2359.00,99.22
2358.00,99.22
2357.00,99.22
2356.00,99.23
2355.00,99.24
2354.00,99.24
2353.00,99.24
2352.00,99.23
2351.00,99.22
2350.00,99.22
2349.00,99.22
2348.00,99.22
2347.00,99.22
2346.00,99.22
2345.00,99.20
2344.00,99.18
2343.00,99.16
2342.00,99.15
2341.00,99.14
2340.00,99.14
2339.00,99.15
2338.00,99.14
2337.00,99.14
2336.00,99.13
2335.00,99.14
2334.00,99.14
2333.00,99.14
2332.00,99.14
2331.00,99.14
2330.00,99.14
2329.00,99.13
2328.00,99.11
2327.00,99.06
2326.00,99.00
2325.00,98.93
2324.00,98.89
2323.00,98.88
2322.00,98.91
2321.00,98.95
2320.00,98.97
2319.00,98.99
2318.00,99.00
2317.00,99.01
2316.00,99.02
2315.00,99.03
2314.00,99.03
2313.00,99.04
2312.00,99.04
2311.00,99.04
2310.00,99.04
2309.00,99.04
2308.00,99.04
2307.00,99.04
2306.00,99.04
2305.00,99.03
2304.00,99.03
2303.00,99.03
2302.00,99.03
2301.00,99.03
2300.00,99.03
2299.00,99.02
2298.00,99.02
2297.00,99.01
2296.00,99.01
2295.00,99.00
2294.00,98.99
2293.00,98.98
2292.00,98.97
2291.00,98.95
2290.00,98.94
2289.00,98.92
2288.00,98.91
2287.00,98.90
2286.00,98.89
2285.00,98.89
2284.00,98.90
2283.00,98.91
2282.00,98.92
2281.00,98.93
2280.00,98.94
2279.00,98.95
2278.00,98.96
2277.00,98.96
2276.00,98.97
2275.00,98.97
2274.00,98.98
2273.00,98.98
2272.00,98.98
2271.00,98.98
2270.00,98.97
2269.00,98.97
2268.00,98.98
2267.00,98.99
2266.00,99.01
2265.00,99.02
2264.00,99.03
2263.00,99.03
2262.00,99.02
2261.00,99.01
2260.00,99.01
2259.00,99.01
2258.00,99.01
2257.00,99.01
2256.00,99.01
2255.00,99.03
2254.00,99.05
2253.00,99.06
2252.00,99.06
2251.00,99.05
2250.00,99.04
2249.00,99.02
2248.00,99.01
2247.00,99.01
2246.00,99.01
2245.00,99.01
2244.00,99.01
2243.00,99.01
2242.00,99.01
2241.00,99.01
2240.00,99.00
2239.00,99.00
2238.00,99.00
2237.00,99.00
2236.00,99.00
2235.00,99.00
2234.00,98.99
2233.00,98.99
2232.00,98.99
2231.00,99.00
2230.00,99.00
2229.00,99.01
2228.00,99.02
2227.00,99.01
2226.00,99.00
2225.00,98.99
2224.00,98.98
2223.00,98.98
2222.00,98.98
2221.00,98.98
2220.00,98.98
2219.00,98.97
2218.00,98.97
2217.00,98.97
2216.00,98.98
2215.00,98.98
2214.00,98.97
2213.00,98.97
2212.00,98.96
2211.00,98.96
2210.00,98.96
2209.00,98.96
2208.00,98.96
2207.00,98.96
2206.00,98.97
2205.00,98.98
2204.00,98.98
2203.00,98.98
2202.00,98.97
2201.00,98.97
2200.00,98.96
2199.00,98.95
2198.00,98.93
2197.00,98.91
2196.00,98.90
2195.00,98.89
2194.00,98.88
2193.00,98.89
2192.00,98.89
2191.00,98.89
2190.00,98.88
2189.00,98.87
2188.00,98.85
2187.00,98.84
2186.00,98.83
2185.00,98.82
2184.00,98.83
2183.00,98.85
2182.00,98.89
2181.00,98.93
2180.00,98.95
2179.00,98.95
2178.00,98.94
2177.00,98.94
2176.00,98.95
2175.00,98.97
2174.00,98.96
2173.00,98.94
2172.00,98.91
2171.00,98.86
2170.00,98.81
2169.00,98.76
2168.00,98.72
2167.00,98.68
2166.00,98.65
2165.00,98.63
2164.00,98.60
2163.00,98.56
2162.00,98.54
2161.00,98.58
2160.00,98.74
2159.00,98.99
2158.00,99.24
2157.00,99.42
2156.00,99.48
2155.00,99.45
2154.00,99.40
2153.00,99.34
2152.00,99.30
2151.00,99.26
2150.00,99.23
2149.00,99.21
2148.00,99.21
2147.00,99.22
2146.00,99.23
2145.00,99.23
2144.00,99.23
2143.00,99.22
2142.00,99.22
2141.00,99.23
2140.00,99.24
2139.00,99.25
2138.00,99.26
2137.00,99.27
2136.00,99.28
2135.00,99.31
2134.00,99.35
2133.00,99.36
2132.00,99.36
2131.00,99.33
2130.00,99.30
2129.00,99.27
2128.00,99.25
2127.00,99.23
2126.00,99.20
2125.00,99.19
2124.00,99.17
2123.00,99.15
2122.00,99.12
2121.00,99.10
2120.00,99.08
2119.00,99.07
2118.00,99.06
2117.00,99.03
2116.00,99.01
2115.00,98.98
2114.00,98.97
2113.00,98.96
2112.00,98.97
2111.00,98.97
2110.00,98.98
2109.00,98.98
2108.00,98.98
2107.00,98.98
2106.00,98.97
2105.00,98.96
2104.00,98.96
2103.00,98.95
2102.00,98.94
2101.00,98.94
2100.00,98.93
2099.00,98.93
2098.00,98.94
2097.00,98.95
2096.00,98.99
2095.00,99.02
2094.00,99.03
2093.00,99.03
2092.00,99.01
2091.00,98.99
2090.00,98.97
2089.00,98.96
2088.00,98.95
2087.00,98.94
2086.00,98.93
2085.00,98.92
2084.00,98.91
2083.00,98.90
2082.00,98.89
2081.00,98.87
2080.00,98.87
2079.00,98.86
2078.00,98.85
2077.00,98.85
2076.00,98.86
2075.00,98.86
2074.00,98.87
2073.00,98.88
2072.00,98.88
2071.00,98.88
2070.00,98.87
2069.00,98.85
2068.00,98.83
2067.00,98.82
2066.00,98.81
2065.00,98.81
2064.00,98.82
2063.00,98.83
2062.00,98.85
2061.00,98.85
2060.00,98.85
2059.00,98.83
2058.00,98.81
2057.00,98.80
2056.00,98.79
2055.00,98.79
2054.00,98.78
2053.00,98.74
2052.00,98.67
2051.00,98.61
2050.00,98.59
2049.00,98.62
2048.00,98.66
2047.00,98.70
2046.00,98.72
2045.00,98.73
2044.00,98.74
2043.00,98.74
2042.00,98.73
2041.00,98.72
2040.00,98.69
2039.00,98.66
2038.00,98.64
2037.00,98.63
2036.00,98.63
2035.00,98.65
2034.00,98.69
2033.00,98.73
2032.00,98.76
2031.00,98.78
2030.00,98.79
2029.00,98.79
2028.00,98.79
2027.00,98.79
2026.00,98.79
2025.00,98.81
2024.00,98.82
2023.00,98.83
2022.00,98.84
2021.00,98.84
2020.00,98.85
2019.00,98.85
2018.00,98.85
2017.00,98.85
2016.00,98.85
2015.00,98.85
2014.00,98.84
2013.00,98.84
2012.00,98.84
2011.00,98.82
2010.00,98.81
2009.00,98.82
2008.00,98.87
2007.00,98.93
2006.00,98.98
2005.00,99.01
2004.00,99.01
2003.00,98.98
2002.00,98.95
2001.00,98.93
2000.00,98.90
1999.00,98.88
1998.00,98.87
1997.00,98.86
1996.00,98.85
1995.00,98.83
1994.00,98.82
1993.00,98.80
1992.00,98.79
1991.00,98.77
1990.00,98.76
1989.00,98.76
1988.00,98.75
1987.00,98.74
1986.00,98.72
1985.00,98.70
1984.00,98.67
1983.00,98.63
1982.00,98.57
1981.00,98.51
1980.00,98.48
1979.00,98.50
1978.00,98.57
1977.00,98.67
1976.00,98.76
1975.00,98.83
1974.00,98.88
1973.00,98.91
1972.00,98.93
1971.00,98.93
1970.00,98.93
1969.00,98.92
1968.00,98.91
1967.00,98.90
1966.00,98.90
1965.00,98.91
1964.00,98.93
1963.00,98.94
1962.00,98.96
1961.00,98.97
1960.00,98.99
1959.00,99.01
1958.00,99.03
1957.00,99.04
1956.00,99.04
1955.00,99.02
1954.00,99.00
1953.00,98.99
1952.00,98.99
1951.00,98.99
1950.00,98.99
1949.00,99.00
1948.00,99.01
1947.00,99.01
1946.00,99.02
1945.00,99.03
1944.00,99.05
1943.00,99.05
1942.00,99.04
1941.00,99.04
1940.00,99.04
1939.00,99.04
1938.00,99.05
1937.00,99.06
1936.00,99.07
1935.00,99.08
1934.00,99.08
1933.00,99.09
1932.00,99.10
1931.00,99.11
1930.00,99.11
1929.00,99.12
1928.00,99.12
1927.00,99.12
1926.00,99.12
1925.00,99.12
1924.00,99.13
1923.00,99.13
1922.00,99.12
1921.00,99.12
1920.00,99.11
1919.00,99.10
1918.00,99.10
1917.00,99.11
1916.00,99.11
1915.00,99.11
1914.00,99.11
1913.00,99.11
1912.00,99.11
1911.00,99.11
1910.00,99.11
1909.00,99.11
1908.00,99.12
1907.00,99.13
1906.00,99.14
1905.00,99.14
1904.00,99.15
1903.00,99.15
1902.00,99.15
1901.00,99.15
1900.00,99.16
1899.00,99.17
1898.00,99.17
1897.00,99.18
1896.00,99.18
1895.00,99.18
1894.00,99.17
1893.00,99.17
1892.00,99.16
1891.00,99.16
1890.00,99.16
1889.00,99.17
1888.00,99.17
1887.00,99.18
1886.00,99.17
1885.00,99.17
1884.00,99.18
1883.00,99.18
1882.00,99.18
1881.00,99.19
1880.00,99.19
1879.00,99.19
1878.00,99.18
1877.00,99.18
1876.00,99.18
1875.00,99.17
1874.00,99.17
1873.00,99.17
1872.00,99.17
1871.00,99.17
1870.00,99.17
1869.00,99.18
1868.00,99.19
1867.00,99.19
1866.00,99.19
1865.00,99.18
1864.00,99.17
1863.00,99.17
1862.00,99.16
1861.00,99.16
1860.00,99.16
1859.00,99.16
1858.00,99.16
1857.00,99.17
1856.00,99.17
1855.00,99.17
1854.00,99.16
1853.00,99.16
1852.00,99.16
1851.00,99.16
1850.00,99.15
1849.00,99.15
1848.00,99.16
1847.00,99.16
1846.00,99.15
1845.00,99.15
1844.00,99.15
1843.00,99.14
1842.00,99.13
1841.00,99.13
1840.00,99.13
1839.00,99.13
1838.00,99.13
1837.00,99.13
1836.00,99.13
1835.00,99.13
1834.00,99.13
1833.00,99.13
1832.00,99.13
1831.00,99.13
1830.00,99.12
1829.00,99.11
1828.00,99.11
1827.00,99.11
1826.00,99.11
1825.00,99.11
1824.00,99.11
1823.00,99.10
1822.00,99.10
1821.00,99.11
1820.00,99.13
1819.00,99.14
1818.00,99.16
1817.00,99.17
1816.00,99.18
1815.00,99.16
1814.00,99.15
1813.00,99.13
1812.00,99.12
1811.00,99.11
1810.00,99.10
1809.00,99.10
1808.00,99.09
1807.00,99.09
1806.00,99.09
1805.00,99.09
1804.00,99.09
1803.00,99.09
1802.00,99.09
1801.00,99.09
1800.00,99.08
1799.00,99.07
1798.00,99.06
1797.00,99.06
1796.00,99.07
1795.00,99.07
1794.00,99.06
1793.00,99.06
1792.00,99.06
1791.00,99.05
1790.00,99.04
1789.00,99.03
1788.00,99.04
1787.00,99.03
1786.00,99.03
1785.00,99.02
1784.00,99.02
1783.00,99.01
1782.00,99.00
1781.00,99.00
1780.00,99.00
1779.00,98.99
1778.00,98.98
1777.00,98.98
1776.00,98.98
1775.00,98.97
1774.00,98.95
1773.00,98.93
1772.00,98.91
1771.00,98.88
1770.00,98.86
1769.00,98.83
1768.00,98.80
1767.00,98.76
1766.00,98.72
1765.00,98.68
1764.00,98.64
1763.00,98.57
1762.00,98.47
1761.00,98.38
1760.00,98.28
1759.00,98.15
1758.00,97.98
1757.00,97.77
1756.00,97.54
1755.00,97.29
1754.00,97.00
1753.00,96.67
1752.00,96.23
1751.00,95.67
1750.00,95.03
1749.00,94.36
1748.00,93.64
1747.00,92.90
1746.00,92.13
1745.00,91.33
1744.00,90.49
1743.00,89.64
1742.00,88.81
1741.00,87.95
1740.00,87.06
1739.00,86.20
1738.00,85.47
1737.00,84.86
1736.00,84.21
1735.00,83.38
1734.00,82.44
1733.00,81.64
1732.00,81.04
1731.00,80.47
1730.00,79.88
1729.00,79.32
1728.00,78.83
1727.00,78.39
1726.00,78.02
1725.00,77.72
1724.00,77.52
1723.00,77.42
1722.00,77.41
1721.00,77.49
1720.00,77.72
1719.00,78.15
1718.00,78.84
1717.00,79.71
1716.00,80.63
1715.00,81.54
1714.00,82.43
1713.00,83.31
1712.00,84.18
1711.00,85.04
1710.00,85.87
1709.00,86.66
1708.00,87.41
1707.00,88.16
1706.00,88.93
1705.00,89.63
1704.00,90.16
1703.00,90.58
1702.00,91.00
1701.00,91.54
1700.00,92.12
1699.00,92.55
1698.00,92.85
1697.00,93.12
1696.00,93.43
1695.00,93.75
1694.00,93.99
1693.00,94.16
1692.00,94.31
1691.00,94.49
1690.00,94.69
1689.00,94.86
1688.00,95.01
1687.00,95.14
1686.00,95.29
1685.00,95.48
1684.00,95.70
1683.00,95.88
1682.00,96.02
1681.00,96.14
1680.00,96.26
1679.00,96.38
1678.00,96.49
1677.00,96.59
1676.00,96.70
1675.00,96.82
1674.00,96.92
1673.00,96.99
1672.00,97.05
1671.00,97.13
1670.00,97.21
1669.00,97.27
1668.00,97.32
1667.00,97.35
1666.00,97.39
1665.00,97.42
1664.00,97.45
1663.00,97.48
1662.00,97.52
1661.00,97.54
1660.00,97.56
1659.00,97.58
1658.00,97.60
1657.00,97.62
1656.00,97.62
1655.00,97.64
1654.00,97.65
1653.00,97.66
1652.00,97.67
1651.00,97.68
1650.00,97.69
1649.00,97.69
1648.00,97.68
1647.00,97.69
1646.00,97.69
1645.00,97.69
1644.00,97.69
1643.00,97.70
1642.00,97.70
1641.00,97.71
1640.00,97.71
1639.00,97.71
1638.00,97.72
1637.00,97.72
1636.00,97.72
1635.00,97.74
1634.00,97.75
1633.00,97.76
1632.00,97.76
1631.00,97.77
1630.00,97.79
1629.00,97.80
1628.00,97.81
1627.00,97.83
1626.00,97.85
1625.00,97.86
1624.00,97.87
1623.00,97.89
1622.00,97.91
1621.00,97.93
1620.00,97.94
1619.00,97.95
1618.00,97.98
1617.00,98.00
1616.00,98.01
1615.00,98.03
1614.00,98.05
1613.00,98.06
1612.00,98.08
1611.00,98.10
1610.00,98.13
1609.00,98.14
1608.00,98.16
1607.00,98.17
1606.00,98.19
1605.00,98.20
1604.00,98.21
1603.00,98.23
1602.00,98.24
1601.00,98.25
1600.00,98.26
1599.00,98.27
1598.00,98.28
1597.00,98.29
1596.00,98.29
1595.00,98.30
1594.00,98.31
1593.00,98.32
1592.00,98.32
1591.00,98.33
1590.00,98.35
1589.00,98.36
1588.00,98.36
1587.00,98.37
1586.00,98.38
1585.00,98.38
1584.00,98.38
1583.00,98.38
1582.00,98.39
1581.00,98.39
1580.00,98.39
1579.00,98.40
1578.00,98.40
1577.00,98.40
1576.00,98.40
1575.00,98.40
1574.00,98.41
1573.00,98.41
1572.00,98.41
1571.00,98.42
1570.00,98.43
1569.00,98.43
1568.00,98.43
1567.00,98.43
1566.00,98.43
1565.00,98.43
1564.00,98.43
1563.00,98.42
1562.00,98.43
1561.00,98.43
1560.00,98.42
1559.00,98.43
1558.00,98.43
1557.00,98.44
1556.00,98.44
1555.00,98.44
1554.00,98.45
1553.00,98.45
1552.00,98.46
1551.00,98.46
1550.00,98.47
1549.00,98.47
1548.00,98.47
1547.00,98.47
1546.00,98.48
1545.00,98.49
1544.00,98.48
1543.00,98.49
1542.00,98.50
1541.00,98.50
1540.00,98.49
1539.00,98.49
1538.00,98.49
1537.00,98.49
1536.00,98.49
1535.00,98.49
1534.00,98.50
1533.00,98.49
1532.00,98.49
1531.00,98.49
1530.00,98.49
1529.00,98.49
1528.00,98.49
1527.00,98.49
1526.00,98.49
1525.00,98.49
1524.00,98.49
1523.00,98.49
1522.00,98.49
1521.00,98.49
1520.00,98.48
1519.00,98.48
1518.00,98.48
1517.00,98.46
1516.00,98.45
1515.00,98.43
1514.00,98.42
1513.00,98.40
1512.00,98.38
1511.00,98.37
1510.00,98.36
1509.00,98.34
1508.00,98.29
1507.00,98.23
1506.00,98.16
1505.00,98.09
1504.00,98.02
1503.00,97.95
1502.00,97.87
1501.00,97.76
1500.00,97.62
1499.00,97.46
1498.00,97.26
1497.00,97.00
1496.00,96.71
1495.00,96.42
1494.00,96.16
1493.00,95.89
1492.00,95.59
1491.00,95.23
1490.00,94.85
1489.00,94.49
1488.00,94.20
1487.00,93.98
1486.00,93.81
1485.00,93.67
1484.00,93.56
1483.00,93.49
1482.00,93.43
1481.00,93.40
1480.00,93.38
1479.00,93.38
1478.00,93.38
1477.00,93.39
1476.00,93.41
1475.00,93.44
1474.00,93.48
1473.00,93.52
1472.00,93.56
1471.00,93.60
1470.00,93.61
1469.00,93.60
1468.00,93.57
1467.00,93.52
1466.00,93.44
1465.00,93.33
1464.00,93.20
1463.00,93.08
1462.00,92.97
1461.00,92.86
1460.00,92.73
1459.00,92.59
1458.00,92.41
1457.00,92.16
1456.00,91.93
1455.00,91.75
1454.00,91.56
1453.00,91.35
1452.00,91.15
1451.00,90.97
1450.00,90.81
1449.00,90.67
1448.00,90.58
1447.00,90.53
1446.00,90.51
1445.00,90.50
1444.00,90.50
1443.00,90.49
1442.00,90.45
1441.00,90.36
1440.00,90.24
1439.00,90.10
1438.00,89.90
1437.00,89.66
1436.00,89.48
1435.00,89.43
1434.00,89.48
1433.00,89.63
1432.00,89.92
1431.00,90.37
1430.00,90.95
1429.00,91.59
1428.00,92.22
1427.00,92.82
1426.00,93.39
1425.00,93.97
1424.00,94.52
1423.00,94.99
1422.00,95.35
1421.00,95.66
1420.00,95.97
1419.00,96.26
1418.00,96.48
1417.00,96.64
1416.00,96.75
1415.00,96.84
1414.00,96.91
1413.00,96.98
1412.00,97.02
1411.00,97.05
1410.00,97.05
1409.00,97.04
1408.00,97.01
1407.00,96.96
1406.00,96.88
1405.00,96.78
1404.00,96.67
1403.00,96.56
1402.00,96.44
1401.00,96.32
1400.00,96.17
1399.00,96.01
1398.00,95.84
1397.00,95.68
1396.00,95.49
1395.00,95.27
1394.00,95.04
1393.00,94.83
1392.00,94.63
1391.00,94.45
1390.00,94.30
1389.00,94.18
1388.00,94.11
1387.00,94.10
1386.00,94.14
1385.00,94.24
1384.00,94.37
1383.00,94.54
1382.00,94.74
1381.00,94.96
1380.00,95.18
1379.00,95.40
1378.00,95.59
1377.00,95.74
1376.00,95.86
1375.00,95.95
1374.00,96.00
1373.00,96.02
1372.00,96.01
1371.00,96.00
1370.00,95.99
1369.00,95.97
1368.00,95.97
1367.00,95.97
1366.00,95.98
1365.00,96.00
1364.00,96.03
1363.00,96.08
1362.00,96.12
1361.00,96.18
1360.00,96.23
1359.00,96.28
1358.00,96.34
1357.00,96.40
1356.00,96.45
1355.00,96.50
1354.00,96.55
1353.00,96.60
1352.00,96.64
1351.00,96.68
1350.00,96.71
1349.00,96.75
1348.00,96.79
1347.00,96.82
1346.00,96.84
1345.00,96.87
1344.00,96.90
1343.00,96.92
1342.00,96.94
1341.00,96.96
1340.00,96.97
1339.00,96.99
1338.00,97.00
1337.00,97.01
1336.00,97.03
1335.00,97.05
1334.00,97.07
1333.00,97.08
1332.00,97.09
1331.00,97.10
1330.00,97.10
1329.00,97.10
1328.00,97.10
1327.00,97.10
1326.00,97.10
1325.00,97.10
1324.00,97.10
1323.00,97.10
1322.00,97.10
1321.00,97.10
1320.00,97.10
1319.00,97.10
1318.00,97.09
1317.00,97.08
1316.00,97.07
1315.00,97.06
1314.00,97.05
1313.00,97.03
1312.00,97.02
1311.00,96.99
1310.00,96.96
1309.00,96.93
1308.00,96.90
1307.00,96.86
1306.00,96.82
1305.00,96.77
1304.00,96.73
1303.00,96.68
1302.00,96.62
1301.00,96.57
1300.00,96.50
1299.00,96.43
1298.00,96.36
1297.00,96.28
1296.00,96.20
1295.00,96.11
1294.00,96.01
1293.00,95.90
1292.00,95.79
1291.00,95.66
1290.00,95.52
1289.00,95.37
1288.00,95.20
1287.00,95.01
1286.00,94.81
1285.00,94.59
1284.00,94.35
1283.00,94.08
1282.00,93.78
1281.00,93.46
1280.00,93.11
1279.00,92.75
1278.00,92.37
1277.00,91.99
1276.00,91.61
1275.00,91.24
1274.00,90.90
1273.00,90.58
1272.00,90.31
1271.00,90.08
1270.00,89.91
1269.00,89.79
1268.00,89.72
1267.00,89.71
1266.00,89.73
1265.00,89.78
1264.00,89.85
1263.00,89.93
1262.00,90.01
1261.00,90.09
1260.00,90.16
1259.00,90.22
1258.00,90.27
1257.00,90.29
1256.00,90.28
1255.00,90.24
1254.00,90.19
1253.00,90.10
1252.00,90.00
1251.00,89.87
1250.00,89.73
1249.00,89.58
1248.00,89.41
1247.00,89.25
1246.00,89.09
1245.00,88.93
1244.00,88.78
1243.00,88.64
1242.00,88.54
1241.00,88.46
1240.00,88.41
1239.00,88.41
1238.00,88.45
1237.00,88.53
1236.00,88.65
1235.00,88.81
1234.00,89.01
1233.00,89.24
1232.00,89.51
1231.00,89.79
1230.00,90.09
1229.00,90.41
1228.00,90.73
1227.00,91.05
1226.00,91.37
1225.00,91.68
1224.00,91.97
1223.00,92.25
1222.00,92.52
1221.00,92.76
1220.00,92.97
1219.00,93.16
1218.00,93.31
1217.00,93.43
1216.00,93.51
1215.00,93.54
1214.00,93.53
1213.00,93.46
1212.00,93.35
1211.00,93.18
1210.00,92.95
1209.00,92.65
1208.00,92.30
1207.00,91.90
1206.00,91.44
1205.00,90.94
1204.00,90.41
1203.00,89.86
1202.00,89.31
1201.00,88.75
1200.00,88.19
1199.00,87.65
1198.00,87.13
1197.00,86.63
1196.00,86.17
1195.00,85.77
1194.00,85.43
1193.00,85.15
1192.00,84.95
1191.00,84.82
1190.00,84.79
1189.00,84.82
1188.00,84.92
1187.00,85.06
1186.00,85.23
1185.00,85.39
1184.00,85.53
1183.00,85.65
1182.00,85.73
1181.00,85.78
1180.00,85.80
1179.00,85.78
1178.00,85.75
1177.00,85.70
1176.00,85.64
1175.00,85.56
1174.00,85.49
1173.00,85.40
1172.00,85.31
1171.00,85.21
1170.00,85.10
1169.00,84.97
1168.00,84.83
1167.00,84.68
1166.00,84.52
1165.00,84.34
1164.00,84.14
1163.00,83.92
1162.00,83.69
1161.00,83.43
1160.00,83.14
1159.00,82.81
1158.00,82.45
1157.00,82.05
1156.00,81.61
1155.00,81.12
1154.00,80.61
1153.00,80.07
1152.00,79.52
1151.00,78.98
1150.00,78.47
1149.00,77.99
1148.00,77.57
1147.00,77.23
1146.00,76.97
1145.00,76.77
1144.00,76.65
1143.00,76.60
1142.00,76.61
1141.00,76.68
1140.00,76.79
1139.00,76.96
1138.00,77.18
1137.00,77.44
1136.00,77.73
1135.00,78.07
1134.00,78.44
1133.00,78.82
1132.00,79.22
1131.00,79.62
1130.00,80.04
1129.00,80.44
1128.00,80.84
1127.00,81.24
1126.00,81.64
1125.00,82.02
1124.00,82.39
1123.00,82.74
1122.00,83.10
1121.00,83.45
1120.00,83.79
1119.00,84.12
1118.00,84.44
1117.00,84.75
1116.00,85.06
1115.00,85.36
1114.00,85.66
1113.00,85.95
1112.00,86.23
1111.00,86.51
1110.00,86.78
1109.00,87.05
1108.00,87.30
1107.00,87.56
1106.00,87.81
1105.00,88.05
1104.00,88.28
1103.00,88.51
1102.00,88.72
1101.00,88.93
1100.00,89.12
1099.00,89.31
1098.00,89.49
1097.00,89.67
1096.00,89.85
1095.00,90.02
1094.00,90.18
1093.00,90.33
1092.00,90.47
1091.00,90.61
1090.00,90.75
1089.00,90.88
1088.00,91.00
1087.00,91.10
1086.00,91.20
1085.00,91.29
1084.00,91.35
1083.00,91.41
1082.00,91.46
1081.00,91.50
1080.00,91.53
1079.00,91.55
1078.00,91.57
1077.00,91.57
1076.00,91.57
1075.00,91.57
1074.00,91.55
1073.00,91.53
1072.00,91.49
1071.00,91.44
1070.00,91.38
1069.00,91.31
1068.00,91.24
1067.00,91.16
1066.00,91.10
1065.00,91.05
1064.00,91.03
1063.00,91.03
1062.00,91.08
1061.00,91.16
1060.00,91.29
1059.00,91.47
1058.00,91.69
1057.00,91.96
1056.00,92.27
1055.00,92.60
1054.00,92.93
1053.00,93.26
1052.00,93.58
1051.00,93.88
1050.00,94.16
1049.00,94.42
1048.00,94.65
1047.00,94.85
1046.00,95.03
1045.00,95.18
1044.00,95.32
1043.00,95.43
1042.00,95.54
1041.00,95.63
1040.00,95.72
1039.00,95.80
1038.00,95.88
1037.00,95.95
1036.00,96.01
1035.00,96.07
1034.00,96.14
1033.00,96.20
1032.00,96.25
1031.00,96.30
1030.00,96.35
1029.00,96.39
1028.00,96.44
1027.00,96.48
1026.00,96.51
1025.00,96.55
1024.00,96.57
1023.00,96.60
1022.00,96.62
1021.00,96.64
1020.00,96.67
1019.00,96.68
1018.00,96.70
1017.00,96.71
1016.00,96.70
1015.00,96.69
1014.00,96.66
1013.00,96.61
1012.00,96.55
1011.00,96.46
1010.00,96.35
1009.00,96.20
1008.00,96.02
1007.00,95.79
1006.00,95.51
1005.00,95.19
1004.00,94.82
1003.00,94.41
1002.00,93.99
1001.00,93.54
1000.00,93.09
999.00,92.63
998.00,92.19
997.00,91.77
996.00,91.37
995.00,91.01
994.00,90.68
993.00,90.39
992.00,90.14
991.00,89.94
990.00,89.77
989.00,89.65
988.00,89.57
987.00,89.54
986.00,89.56
985.00,89.62
984.00,89.71
983.00,89.83
982.00,89.97
981.00,90.12
980.00,90.28
979.00,90.43
978.00,90.58
977.00,90.70
976.00,90.79
975.00,90.85
974.00,90.86
973.00,90.85
972.00,90.80
971.00,90.73
970.00,90.65
969.00,90.56
968.00,90.48
967.00,90.42
966.00,90.40
965.00,90.40
964.00,90.43
963.00,90.49
962.00,90.57
961.00,90.67
960.00,90.79
959.00,90.92
958.00,91.06
957.00,91.22
956.00,91.38
955.00,91.54
954.00,91.70
953.00,91.86
952.00,92.01
951.00,92.16
950.00,92.31
949.00,92.46
948.00,92.61
947.00,92.75
946.00,92.88
945.00,93.00
944.00,93.11
943.00,93.22
942.00,93.32
941.00,93.42
940.00,93.51
939.00,93.60
938.00,93.68
937.00,93.76
936.00,93.83
935.00,93.90
934.00,93.95
933.00,94.01
932.00,94.07
931.00,94.13
930.00,94.19
929.00,94.24
928.00,94.27
927.00,94.29
926.00,94.31
925.00,94.33
924.00,94.33
923.00,94.32
922.00,94.31
921.00,94.29
920.00,94.26
919.00,94.22
918.00,94.18
917.00,94.14
916.00,94.10
915.00,94.08
914.00,94.06
913.00,94.07
912.00,94.09
911.00,94.12
910.00,94.18
909.00,94.24
908.00,94.31
907.00,94.39
906.00,94.48
905.00,94.56
904.00,94.65
903.00,94.73
902.00,94.82
901.00,94.90
900.00,94.96
899.00,95.03
898.00,95.09
897.00,95.16
896.00,95.22
895.00,95.28
894.00,95.35
893.00,95.40
892.00,95.46
891.00,95.50
890.00,95.55
889.00,95.59
888.00,95.64
887.00,95.68
886.00,95.71
885.00,95.73
884.00,95.75
883.00,95.75
882.00,95.75
881.00,95.75
880.00,95.75
879.00,95.75
878.00,95.75
877.00,95.75
876.00,95.75
875.00,95.74
874.00,95.72
873.00,95.69
872.00,95.67
871.00,95.64
870.00,95.61
869.00,95.57
868.00,95.52
867.00,95.46
866.00,95.39
865.00,95.32
864.00,95.26
863.00,95.20
862.00,95.14
861.00,95.06
860.00,94.97
859.00,94.88
858.00,94.78
857.00,94.66
856.00,94.53
855.00,94.39
854.00,94.24
853.00,94.07
852.00,93.90
851.00,93.71
850.00,93.50
849.00,93.27
848.00,93.01
847.00,92.73
846.00,92.46
845.00,92.19
844.00,91.94
843.00,91.72
842.00,91.55
841.00,91.46
840.00,91.46
839.00,91.57
838.00,91.79
837.00,92.10
836.00,92.47
835.00,92.87
834.00,93.23
833.00,93.52
832.00,93.70
831.00,93.78
830.00,93.77
829.00,93.71
828.00,93.64
827.00,93.60
826.00,93.61
825.00,93.68
824.00,93.80
823.00,93.94
822.00,94.11
821.00,94.28
820.00,94.42
819.00,94.52
818.00,94.56
817.00,94.56
816.00,94.51
815.00,94.42
814.00,94.32
813.00,94.20
812.00,94.11
811.00,94.04
810.00,94.02
809.00,94.04
808.00,94.08
807.00,94.14
806.00,94.22
805.00,94.32
804.00,94.44
803.00,94.55
802.00,94.66
801.00,94.76
800.00,94.84
799.00,94.92
798.00,95.00
797.00,95.07
796.00,95.14
795.00,95.20
794.00,95.26
793.00,95.31
792.00,95.36
791.00,95.38
790.00,95.41
789.00,95.44
788.00,95.46
787.00,95.49
786.00,95.50
785.00,95.49
784.00,95.49
783.00,95.48
782.00,95.49
781.00,95.49
780.00,95.48
779.00,95.47
778.00,95.44
777.00,95.40
776.00,95.34
775.00,95.27
774.00,95.20
773.00,95.12
772.00,95.04
771.00,94.94
770.00,94.83
769.00,94.70
768.00,94.56
767.00,94.40
766.00,94.22
765.00,94.02
764.00,93.80
763.00,93.57
762.00,93.32
761.00,93.05
760.00,92.76
759.00,92.45
758.00,92.11
757.00,91.76
756.00,91.39
755.00,91.01
754.00,90.64
753.00,90.29
752.00,90.01
751.00,89.84
750.00,89.82
749.00,89.97
748.00,90.31
747.00,90.81
746.00,91.42
745.00,92.06
744.00,92.67
743.00,93.19
742.00,93.61
741.00,93.94
740.00,94.18
739.00,94.37
738.00,94.51
737.00,94.63
736.00,94.72
735.00,94.80
734.00,94.87
733.00,94.94
732.00,95.01
731.00,95.09
730.00,95.17
729.00,95.26
728.00,95.35
727.00,95.44
726.00,95.52
725.00,95.60
724.00,95.67
723.00,95.72
722.00,95.76
721.00,95.80
720.00,95.83
719.00,95.87
718.00,95.89
717.00,95.92
716.00,95.93
715.00,95.95
714.00,95.96
713.00,95.99
712.00,96.01
711.00,96.03
710.00,96.04
709.00,96.05
708.00,96.05
707.00,96.05
706.00,96.05
705.00,96.07
704.00,96.09
703.00,96.11
702.00,96.14
701.00,96.16
700.00,96.18
699.00,96.18
698.00,96.18
697.00,96.17
696.00,96.17
695.00,96.18
694.00,96.19
693.00,96.20
692.00,96.21
691.00,96.23
690.00,96.23
689.00,96.21
688.00,96.19
687.00,96.19
686.00,96.19
685.00,96.18
684.00,96.17
683.00,96.15
682.00,96.15
681.00,96.16
680.00,96.17
679.00,96.18
678.00,96.17
677.00,96.17
676.00,96.17
675.00,96.17
674.00,96.18
673.00,96.17
672.00,96.16
671.00,96.16
670.00,96.16
669.00,96.15
668.00,96.13
667.00,96.10
666.00,96.10
665.00,96.11
664.00,96.10
663.00,96.07
662.00,96.05
661.00,96.03
660.00,96.01
659.00,96.00
658.00,95.99
657.00,95.96
656.00,95.91
655.00,95.87
654.00,95.87
653.00,95.89
652.00,95.90
651.00,95.88
650.00,95.84
