Created as New Dataset,Acrylic Clear
cm-1,%T
4000.00,98.70
3999.00,98.69
3998.00,98.69
3997.00,98.69
3996.00,98.69
3995.00,98.69
3994.00,98.69
3993.00,98.69
3992.00,98.69
3991.00,98.69
3990.00,98.69
3989.00,98.69
3988.00,98.69
3987.00,98.69
3986.00,98.69
3985.00,98.69
3984.00,98.69
3983.00,98.68
3982.00,98.69
3981.00,98.69
3980.00,98.69
3979.00,98.69
3978.00,98.69
3977.00,98.69
3976.00,98.69
3975.00,98.70
3974.00,98.70
3973.00,98.70
3972.00,98.70
3971.00,98.70
3970.00,98.70
3969.00,98.70
3968.00,98.69
3967.00,98.69
3966.00,98.69
3965.00,98.69
3964.00,98.69
3963.00,98.69
3962.00,98.70
3961.00,98.70
3960.00,98.70
3959.00,98.70
3958.00,98.70
3957.00,98.70
3956.00,98.70
3955.00,98.70
3954.00,98.69
3953.00,98.69
3952.00,98.69
3951.00,98.69
3950.00,98.69
3949.00,98.69
3948.00,98.69
3947.00,98.69
3946.00,98.69
3945.00,98.69
3944.00,98.69
3943.00,98.69
3942.00,98.69
3941.00,98.68
3940.00,98.68
3939.00,98.68
3938.00,98.68
3937.00,98.68
3936.00,98.68
3935.00,98.68
3934.00,98.68
3933.00,98.68
3932.00,98.68
3931.00,98.68
3930.00,98.69
3929.00,98.69
3928.00,98.69
3927.00,98.69
3926.00,98.69
3925.00,98.68
3924.00,98.68
3923.00,98.68
3922.00,98.68
3921.00,98.68
3920.00,98.68
3919.00,98.69
3918.00,98.69
3917.00,98.69
3916.00,98.69
3915.00,98.68
3914.00,98.68
3913.00,98.68
3912.00,98.68
3911.00,98.68
3910.00,98.68
3909.00,98.68
3908.00,98.68
3907.00,98.68
3906.00,98.68
3905.00,98.68
3904.00,98.68
3903.00,98.68
3902.00,98.68
3901.00,98.68
3900.00,98.67
3899.00,98.67
3898.00,98.67
3897.00,98.67
3896.00,98.68
3895.00,98.68
3894.00,98.68
3893.00,98.68
3892.00,98.68
3891.00,98.68
3890.00,98.67
3889.00,98.67
3888.00,98.67
3887.00,98.67
3886.00,98.66
3885.00,98.66
3884.00,98.66
3883.00,98.66
3882.00,98.66
3881.00,98.66
3880.00,98.66
3879.00,98.67
3878.00,98.67
3877.00,98.66
3876.00,98.66
3875.00,98.66
3874.00,98.66
3873.00,98.66
3872.00,98.66
3871.00,98.65
3870.00,98.64
3869.00,98.64
3868.00,98.65
3867.00,98.66
3866.00,98.66
3865.00,98.67
3864.00,98.67
3863.00,98.67
3862.00,98.67
3861.00,98.66
3860.00,98.66
3859.00,98.65
3858.00,98.65
3857.00,98.65
3856.00,98.64
3855.00,98.63
3854.00,98.63
3853.00,98.63
3852.00,98.63
3851.00,98.64
3850.00,98.64
3849.00,98.65
3848.00,98.65
3847.00,98.65
3846.00,98.65
3845.00,98.65
3844.00,98.65
3843.00,98.65
3842.00,98.64
3841.00,98.64
3840.00,98.64
3839.00,98.64
3838.00,98.64
3837.00,98.64
3836.00,98.64
3835.00,98.64
3834.00,98.64
3833.00,98.64
3832.00,98.64
3831.00,98.64
3830.00,98.65
3829.00,98.65
3828.00,98.64
3827.00,98.64
3826.00,98.64
3825.00,98.63
3824.00,98.63
3823.00,98.63
3822.00,98.63
3821.00,98.62
3820.00,98.62
3819.00,98.62
3818.00,98.63
3817.00,98.63
3816.00,98.63
3815.00,98.63
3814.00,98.63
3813.00,98.63
3812.00,98.63
3811.00,98.63
3810.00,98.63
3809.00,98.63
3808.00,98.63
3807.00,98.62
3806.00,98.62
3805.00,98.62
3804.00,98.62
3803.00,98.62
3802.00,98.62
3801.00,98.62
3800.00,98.62
3799.00,98.63
3798.00,98.63
3797.00,98.64
3796.00,98.64
3795.00,98.64
3794.00,98.64
3793.00,98.64
3792.00,98.63
3791.00,98.63
3790.00,98.63
3789.00,98.63
3788.00,98.63
3787.00,98.63
3786.00,98.63
3785.00,98.63
3784.00,98.63
3783.00,98.63
3782.00,98.63
3781.00,98.63
3780.00,98.62
3779.00,98.62
3778.00,98.62
3777.00,98.62
3776.00,98.62
3775.00,98.61
3774.00,98.61
3773.00,98.61
3772.00,98.61
3771.00,98.62
3770.00,98.62
3769.00,98.62
3768.00,98.61
3767.00,98.61
3766.00,98.61
3765.00,98.61
3764.00,98.61
3763.00,98.60
3762.00,98.60
3761.00,98.60
3760.00,98.59
3759.00,98.59
3758.00,98.59
3757.00,98.59
3756.00,98.58
3755.00,98.58
3754.00,98.57
3753.00,98.57
3752.00,98.57
3751.00,98.57
3750.00,98.57
3749.00,98.57
3748.00,98.57
3747.00,98.58
3746.00,98.58
3745.00,98.58
3744.00,98.58
3743.00,98.59
3742.00,98.59
3741.00,98.59
3740.00,98.59
3739.00,98.59
3738.00,98.59
3737.00,98.58
3736.00,98.57
3735.00,98.57
3734.00,98.58
3733.00,98.58
3732.00,98.58
3731.00,98.58
3730.00,98.59
3729.00,98.59
3728.00,98.60
3727.00,98.61
3726.00,98.61
3725.00,98.61
3724.00,98.61
3723.00,98.60
3722.00,98.61
3721.00,98.61
3720.00,98.61
3719.00,98.61
3718.00,98.60
3717.00,98.60
3716.00,98.60
3715.00,98.60
3714.00,98.59
3713.00,98.59
3712.00,98.59
3711.00,98.59
3710.00,98.59
3709.00,98.59
3708.00,98.59
3707.00,98.59
3706.00,98.59
3705.00,98.60
3704.00,98.60
3703.00,98.60
3702.00,98.60
3701.00,98.60
3700.00,98.60
3699.00,98.60
3698.00,98.60
3697.00,98.59
3696.00,98.59
3695.00,98.59
3694.00,98.59
3693.00,98.59
3692.00,98.58
3691.00,98.57
3690.00,98.56
3689.00,98.56
3688.00,98.55
3687.00,98.55
3686.00,98.55
3685.00,98.55
3684.00,98.55
3683.00,98.55
3682.00,98.55
3681.00,98.54
3680.00,98.54
3679.00,98.53
3678.00,98.52
3677.00,98.51
3676.00,98.50
3675.00,98.49
3674.00,98.49
3673.00,98.49
3672.00,98.49
3671.00,98.49
3670.00,98.50
3669.00,98.50
3668.00,98.50
3667.00,98.50
3666.00,98.50
3665.00,98.49
3664.00,98.49
3663.00,98.48
3662.00,98.48
3661.00,98.48
3660.00,98.47
3659.00,98.47
3658.00,98.47
3657.00,98.46
3656.00,98.46
3655.00,98.45
3654.00,98.44
3653.00,98.44
3652.00,98.43
3651.00,98.42
3650.00,98.42
3649.00,98.41
3648.00,98.41
3647.00,98.41
3646.00,98.41
3645.00,98.41
3644.00,98.41
3643.00,98.42
3642.00,98.41
3641.00,98.41
3640.00,98.41
3639.00,98.40
3638.00,98.39
3637.00,98.39
3636.00,98.39
3635.00,98.38
3634.00,98.38
3633.00,98.38
3632.00,98.37
3631.00,98.37
3630.00,98.37
3629.00,98.37
3628.00,98.37
3627.00,98.37
3626.00,98.37
3625.00,98.37
3624.00,98.37
3623.00,98.37
3622.00,98.37
3621.00,98.37
3620.00,98.37
3619.00,98.37
3618.00,98.37
3617.00,98.37
3616.00,98.37
3615.00,98.37
3614.00,98.38
3613.00,98.39
3612.00,98.39
3611.00,98.40
3610.00,98.41
3609.00,98.41
3608.00,98.41
3607.00,98.41
3606.00,98.42
3605.00,98.42
3604.00,98.42
3603.00,98.42
3602.00,98.43
3601.00,98.43
3600.00,98.44
3599.00,98.44
3598.00,98.44
3597.00,98.44
3596.00,98.44
3595.00,98.44
3594.00,98.44
3593.00,98.45
3592.00,98.45
3591.00,98.45
3590.00,98.46
3589.00,98.47
3588.00,98.47
3587.00,98.47
3586.00,98.47
3585.00,98.47
3584.00,98.47
3583.00,98.47
3582.00,98.47
3581.00,98.48
3580.00,98.48
3579.00,98.48
3578.00,98.48
3577.00,98.48
3576.00,98.48
3575.00,98.48
3574.00,98.48
3573.00,98.48
3572.00,98.48
3571.00,98.48
3570.00,98.47
3569.00,98.47
3568.00,98.46
3567.00,98.46
3566.00,98.47
3565.00,98.47
3564.00,98.47
3563.00,98.47
3562.00,98.46
3561.00,98.46
3560.00,98.46
3559.00,98.46
3558.00,98.46
3557.00,98.45
3556.00,98.45
3555.00,98.45
3554.00,98.45
3553.00,98.44
3552.00,98.44
3551.00,98.44
3550.00,98.44
3549.00,98.44
3548.00,98.44
3547.00,98.44
3546.00,98.45
3545.00,98.45
3544.00,98.45
3543.00,98.45
3542.00,98.45
3541.00,98.45
3540.00,98.45
3539.00,98.46
3538.00,98.46
3537.00,98.46
3536.00,98.47
3535.00,98.47
3534.00,98.47
3533.00,98.47
3532.00,98.48
3531.00,98.48
3530.00,98.48
3529.00,98.48
3528.00,98.48
3527.00,98.49
3526.00,98.49
3525.00,98.50
3524.00,98.50
3523.00,98.50
3522.00,98.49
3521.00,98.49
3520.00,98.50
3519.00,98.50
3518.00,98.50
3517.00,98.50
3516.00,98.51
3515.00,98.51
3514.00,98.51
3513.00,98.52
3512.00,98.52
3511.00,98.52
3510.00,98.52
3509.00,98.52
3508.00,98.53
3507.00,98.53
3506.00,98.53
3505.00,98.53
3504.00,98.53
3503.00,98.52
3502.00,98.52
3501.00,98.52
3500.00,98.52
3499.00,98.52
3498.00,98.52
3497.00,98.52
3496.00,98.52
3495.00,98.52
3494.00,98.52
3493.00,98.52
3492.00,98.52
3491.00,98.52
3490.00,98.52
3489.00,98.52
3488.00,98.52
3487.00,98.52
3486.00,98.52
3485.00,98.51
3484.00,98.51
3483.00,98.51
3482.00,98.51
3481.00,98.51
3480.00,98.51
3479.00,98.50
3478.00,98.50
3477.00,98.49
3476.00,98.49
3475.00,98.49
3474.00,98.49
3473.00,98.49
3472.00,98.50
3471.00,98.50
3470.00,98.50
3469.00,98.50
3468.00,98.50
3467.00,98.49
3466.00,98.48
3465.00,98.47
3464.00,98.46
3463.00,98.46
3462.00,98.46
3461.00,98.45
3460.00,98.45
3459.00,98.43
3458.00,98.42
3457.00,98.41
3456.00,98.41
3455.00,98.40
3454.00,98.40
3453.00,98.39
3452.00,98.39
3451.00,98.38
3450.00,98.38
3449.00,98.37
3448.00,98.37
3447.00,98.36
3446.00,98.36
3445.00,98.35
3444.00,98.35
3443.00,98.35
3442.00,98.36
3441.00,98.37
3440.00,98.37
3439.00,98.38
3438.00,98.39
3437.00,98.39
3436.00,98.39
3435.00,98.39
3434.00,98.39
3433.00,98.39
3432.00,98.40
3431.00,98.40
3430.00,98.41
3429.00,98.41
3428.00,98.40
3427.00,98.41
3426.00,98.41
3425.00,98.42
3424.00,98.43
3423.00,98.43
3422.00,98.44
3421.00,98.45
3420.00,98.45
3419.00,98.46
3418.00,98.47
3417.00,98.47
3416.00,98.48
3415.00,98.49
3414.00,98.50
3413.00,98.50
3412.00,98.51
3411.00,98.52
3410.00,98.52
3409.00,98.52
3408.00,98.52
3407.00,98.53
3406.00,98.53
3405.00,98.53
3404.00,98.54
3403.00,98.54
3402.00,98.55
3401.00,98.55
3400.00,98.55
3399.00,98.55
3398.00,98.55
3397.00,98.55
3396.00,98.55
3395.00,98.55
3394.00,98.56
3393.00,98.56
3392.00,98.56
3391.00,98.56
3390.00,98.56
3389.00,98.56
3388.00,98.56
3387.00,98.55
3386.00,98.55
3385.00,98.55
3384.00,98.56
3383.00,98.56
3382.00,98.57
3381.00,98.57
3380.00,98.57
3379.00,98.57
3378.00,98.57
3377.00,98.56
3376.00,98.56
3375.00,98.56
3374.00,98.56
3373.00,98.56
3372.00,98.56
3371.00,98.56
3370.00,98.57
3369.00,98.57
3368.00,98.57
3367.00,98.57
3366.00,98.57
3365.00,98.57
3364.00,98.57
3363.00,98.57
3362.00,98.57
3361.00,98.57
3360.00,98.57
3359.00,98.57
3358.00,98.57
3357.00,98.57
3356.00,98.57
3355.00,98.57
3354.00,98.57
3353.00,98.57
3352.00,98.57
3351.00,98.57
3350.00,98.57
3349.00,98.57
3348.00,98.57
3347.00,98.57
3346.00,98.57
3345.00,98.57
3344.00,98.57
3343.00,98.57
3342.00,98.57
3341.00,98.58
3340.00,98.58
3339.00,98.58
3338.00,98.58
3337.00,98.57
3336.00,98.56
3335.00,98.56
3334.00,98.55
3333.00,98.56
3332.00,98.56
3331.00,98.56
3330.00,98.56
3329.00,98.56
3328.00,98.56
3327.00,98.56
3326.00,98.57
3325.00,98.58
3324.00,98.58
3323.00,98.58
3322.00,98.58
3321.00,98.57
3320.00,98.57
3319.00,98.58
3318.00,98.58
3317.00,98.58
3316.00,98.58
3315.00,98.58
3314.00,98.57
3313.00,98.57
3312.00,98.57
3311.00,98.57
3310.00,98.57
3309.00,98.57
3308.00,98.57
3307.00,98.57
3306.00,98.57
3305.00,98.57
3304.00,98.57
3303.00,98.57
3302.00,98.57
3301.00,98.57
3300.00,98.57
3299.00,98.57
3298.00,98.57
3297.00,98.57
3296.00,98.57
3295.00,98.57
3294.00,98.58
3293.00,98.58
3292.00,98.58
3291.00,98.58
3290.00,98.57
3289.00,98.57
3288.00,98.57
3287.00,98.57
3286.00,98.56
3285.00,98.56
3284.00,98.56
3283.00,98.56
3282.00,98.56
3281.00,98.56
3280.00,98.57
3279.00,98.57
3278.00,98.57
3277.00,98.57
3276.00,98.56
3275.00,98.56
3274.00,98.56
3273.00,98.56
3272.00,98.56
3271.00,98.56
3270.00,98.56
3269.00,98.56
3268.00,98.56
3267.00,98.55
3266.00,98.55
3265.00,98.56
3264.00,98.56
3263.00,98.56
3262.00,98.56
3261.00,98.56
3260.00,98.55
3259.00,98.55
3258.00,98.54
3257.00,98.54
3256.00,98.55
3255.00,98.55
3254.00,98.56
3253.00,98.56
3252.00,98.56
3251.00,98.56
3250.00,98.56
3249.00,98.55
3248.00,98.55
3247.00,98.55
3246.00,98.55
3245.00,98.55
3244.00,98.55
3243.00,98.55
3242.00,98.56
3241.00,98.56
3240.00,98.56
3239.00,98.56
3238.00,98.55
3237.00,98.55
3236.00,98.55
3235.00,98.55
3234.00,98.56
3233.00,98.56
3232.00,98.57
3231.00,98.57
3230.00,98.56
3229.00,98.56
3228.00,98.56
3227.00,98.56
3226.00,98.56
3225.00,98.55
3224.00,98.55
3223.00,98.54
3222.00,98.55
3221.00,98.55
3220.00,98.55
3219.00,98.55
3218.00,98.55
3217.00,98.55
3216.00,98.55
3215.00,98.55
3214.00,98.55
3213.00,98.55
3212.00,98.55
3211.00,98.55
3210.00,98.55
3209.00,98.55
3208.00,98.54
3207.00,98.54
3206.00,98.54
3205.00,98.54
3204.00,98.54
3203.00,98.54
3202.00,98.54
3201.00,98.54
3200.00,98.54
3199.00,98.54
3198.00,98.54
3197.00,98.54
3196.00,98.55
3195.00,98.55
3194.00,98.55
3193.00,98.55
3192.00,98.55
3191.00,98.55
3190.00,98.54
3189.00,98.54
3188.00,98.53
3187.00,98.53
3186.00,98.53
3185.00,98.53
3184.00,98.53
3183.00,98.54
3182.00,98.54
3181.00,98.54
3180.00,98.53
3179.00,98.53
3178.00,98.53
3177.00,98.53
3176.00,98.53
3175.00,98.53
3174.00,98.53
3173.00,98.53
3172.00,98.53
3171.00,98.53
3170.00,98.52
3169.00,98.52
3168.00,98.53
3167.00,98.53
3166.00,98.53
3165.00,98.53
3164.00,98.53
3163.00,98.52
3162.00,98.52
3161.00,98.52
3160.00,98.52
3159.00,98.53
3158.00,98.53
3157.00,98.52
3156.00,98.52
3155.00,98.52
3154.00,98.52
3153.00,98.52
3152.00,98.53
3151.00,98.53
3150.00,98.53
3149.00,98.53
3148.00,98.53
3147.00,98.53
3146.00,98.53
3145.00,98.53
3144.00,98.53
3143.00,98.53
3142.00,98.53
3141.00,98.53
3140.00,98.53
3139.00,98.53
3138.00,98.53
3137.00,98.53
3136.00,98.53
3135.00,98.53
3134.00,98.53
3133.00,98.53
3132.00,98.53
3131.00,98.52
3130.00,98.52
3129.00,98.52
3128.00,98.52
3127.00,98.52
3126.00,98.51
3125.00,98.51
3124.00,98.51
3123.00,98.51
3122.00,98.51
3121.00,98.51
3120.00,98.51
3119.00,98.51
3118.00,98.51
3117.00,98.51
3116.00,98.51
3115.00,98.51
3114.00,98.51
3113.00,98.51
3112.00,98.51
3111.00,98.51
3110.00,98.51
3109.00,98.51
3108.00,98.51
3107.00,98.51
3106.00,98.51
3105.00,98.50
3104.00,98.50
3103.00,98.50
3102.00,98.50
3101.00,98.50
3100.00,98.50
3099.00,98.50
3098.00,98.50
3097.00,98.50
3096.00,98.50
3095.00,98.50
3094.00,98.50
3093.00,98.50
3092.00,98.50
3091.00,98.49
3090.00,98.49
3089.00,98.49
3088.00,98.49
3087.00,98.49
3086.00,98.49
3085.00,98.49
3084.00,98.49
3083.00,98.49
3082.00,98.48
3081.00,98.48
3080.00,98.47
3079.00,98.47
3078.00,98.47
3077.00,98.47
3076.00,98.47
3075.00,98.46
3074.00,98.46
3073.00,98.46
3072.00,98.46
3071.00,98.45
3070.00,98.45
3069.00,98.44
3068.00,98.44
3067.00,98.44
3066.00,98.43
3065.00,98.42
3064.00,98.42
3063.00,98.41
3062.00,98.40
3061.00,98.40
3060.00,98.39
3059.00,98.38
3058.00,98.37
3057.00,98.35
3056.00,98.34
3055.00,98.32
3054.00,98.31
3053.00,98.30
3052.00,98.28
3051.00,98.26
3050.00,98.24
3049.00,98.22
3048.00,98.20
3047.00,98.18
3046.00,98.16
3045.00,98.13
3044.00,98.11
3043.00,98.08
3042.00,98.05
3041.00,98.02
3040.00,97.99
3039.00,97.95
3038.00,97.91
3037.00,97.87
3036.00,97.82
3035.00,97.78
3034.00,97.73
3033.00,97.69
3032.00,97.64
3031.00,97.59
3030.00,97.53
3029.00,97.48
3028.00,97.43
3027.00,97.38
3026.00,97.33
3025.00,97.28
3024.00,97.23
3023.00,97.18
3022.00,97.12
3021.00,97.06
3020.00,97.00
3019.00,96.94
3018.00,96.88
3017.00,96.82
3016.00,96.76
3015.00,96.69
3014.00,96.63
3013.00,96.56
3012.00,96.49
3011.00,96.42
3010.00,96.35
3009.00,96.27
3008.00,96.20
3007.00,96.12
3006.00,96.04
3005.00,95.97
3004.00,95.89
3003.00,95.82
3002.00,95.76
3001.00,95.69
3000.00,95.64
2999.00,95.59
2998.00,95.55
2997.00,95.51
2996.00,95.48
2995.00,95.46
2994.00,95.45
2993.00,95.45
2992.00,95.46
2991.00,95.48
2990.00,95.51
2989.00,95.55
2988.00,95.59
2987.00,95.65
2986.00,95.72
2985.00,95.79
2984.00,95.87
2983.00,95.95
2982.00,96.03
2981.00,96.11
2980.00,96.18
2979.00,96.25
2978.00,96.31
2977.00,96.36
2976.00,96.40
2975.00,96.42
2974.00,96.43
2973.00,96.42
2972.00,96.40
2971.00,96.37
2970.00,96.31
2969.00,96.24
2968.00,96.16
2967.00,96.06
2966.00,95.94
2965.00,95.81
2964.00,95.67
2963.00,95.52
2962.00,95.34
2961.00,95.16
2960.00,94.96
2959.00,94.76
2958.00,94.56
2957.00,94.36
2956.00,94.17
2955.00,93.99
2954.00,93.83
2953.00,93.70
2952.00,93.61
2951.00,93.56
2950.00,93.56
2949.00,93.62
2948.00,93.72
2947.00,93.86
2946.00,94.02
2945.00,94.20
2944.00,94.39
2943.00,94.56
2942.00,94.72
2941.00,94.86
2940.00,94.99
2939.00,95.09
2938.00,95.18
2937.00,95.26
2936.00,95.32
2935.00,95.38
2934.00,95.43
2933.00,95.48
2932.00,95.53
2931.00,95.58
2930.00,95.62
2929.00,95.65
2928.00,95.69
2927.00,95.72
2926.00,95.76
2925.00,95.80
2924.00,95.84
2923.00,95.89
2922.00,95.93
2921.00,95.97
2920.00,96.01
2919.00,96.04
2918.00,96.08
2917.00,96.12
2916.00,96.16
2915.00,96.19
2914.00,96.23
2913.00,96.26
2912.00,96.29
2911.00,96.33
2910.00,96.36
2909.00,96.40
2908.00,96.43
2907.00,96.47
2906.00,96.51
2905.00,96.55
2904.00,96.60
2903.00,96.64
2902.00,96.69
2901.00,96.73
2900.00,96.77
2899.00,96.81
2898.00,96.84
2897.00,96.87
2896.00,96.91
2895.00,96.94
2894.00,96.97
2893.00,96.99
2892.00,97.01
2891.00,97.04
2890.00,97.06
2889.00,97.09
2888.00,97.12
2887.00,97.15
2886.00,97.17
2885.00,97.20
2884.00,97.23
2883.00,97.26
2882.00,97.29
2881.00,97.32
2880.00,97.35
2879.00,97.38
2878.00,97.42
2877.00,97.45
2876.00,97.49
2875.00,97.52
2874.00,97.55
2873.00,97.58
2872.00,97.60
2871.00,97.63
2870.00,97.65
2869.00,97.67
2868.00,97.69
2867.00,97.70
2866.00,97.71
2865.00,97.73
2864.00,97.74
2863.00,97.75
2862.00,97.75
2861.00,97.75
2860.00,97.75
2859.00,97.75
2858.00,97.75
2857.00,97.74
2856.00,97.73
2855.00,97.72
2854.00,97.70
2853.00,97.68
2852.00,97.66
2851.00,97.64
2850.00,97.62
2849.00,97.60
2848.00,97.58
2847.00,97.56
2846.00,97.54
2845.00,97.53
2844.00,97.53
2843.00,97.52
2842.00,97.52
2841.00,97.53
2840.00,97.55
2839.00,97.58
2838.00,97.61
2837.00,97.64
2836.00,97.68
2835.00,97.72
2834.00,97.76
2833.00,97.80
2832.00,97.84
2831.00,97.87
2830.00,97.90
2829.00,97.93
2828.00,97.95
2827.00,97.97
2826.00,98.00
2825.00,98.02
2824.00,98.04
2823.00,98.06
2822.00,98.08
2821.00,98.09
2820.00,98.11
2819.00,98.12
2818.00,98.13
2817.00,98.14
2816.00,98.15
2815.00,98.16
2814.00,98.17
2813.00,98.18
2812.00,98.19
2811.00,98.20
2810.00,98.20
2809.00,98.21
2808.00,98.21
2807.00,98.22
2806.00,98.22
2805.00,98.23
2804.00,98.23
2803.00,98.24
2802.00,98.24
2801.00,98.25
2800.00,98.25
2799.00,98.25
2798.00,98.26
2797.00,98.26
2796.00,98.27
2795.00,98.27
2794.00,98.27
2793.00,98.27
2792.00,98.27
2791.00,98.27
2790.00,98.27
2789.00,98.28
2788.00,98.28
2787.00,98.28
2786.00,98.28
2785.00,98.28
2784.00,98.28
2783.00,98.28
2782.00,98.29
2781.00,98.29
2780.00,98.28
2779.00,98.28
2778.00,98.28
2777.00,98.29
2776.00,98.29
2775.00,98.29
2774.00,98.29
2773.00,98.29
2772.00,98.29
2771.00,98.29
2770.00,98.29
2769.00,98.29
2768.00,98.29
2767.00,98.29
2766.00,98.29
2765.00,98.30
2764.00,98.30
2763.00,98.30
2762.00,98.30
2761.00,98.30
2760.00,98.31
2759.00,98.31
2758.00,98.31
2757.00,98.31
2756.00,98.32
2755.00,98.31
2754.00,98.31
2753.00,98.31
2752.00,98.31
2751.00,98.32
2750.00,98.32
2749.00,98.32
2748.00,98.32
2747.00,98.32
2746.00,98.33
2745.00,98.33
2744.00,98.33
2743.00,98.32
2742.00,98.32
2741.00,98.32
2740.00,98.32
2739.00,98.32
2738.00,98.33
2737.00,98.33
2736.00,98.33
2735.00,98.34
2734.00,98.34
2733.00,98.35
2732.00,98.35
2731.00,98.35
2730.00,98.34
2729.00,98.34
2728.00,98.35
2727.00,98.35
2726.00,98.35
2725.00,98.35
2724.00,98.35
2723.00,98.35
2722.00,98.36
2721.00,98.36
2720.00,98.36
2719.00,98.36
2718.00,98.36
2717.00,98.36
2716.00,98.36
2715.00,98.36
2714.00,98.36
2713.00,98.36
2712.00,98.37
2711.00,98.37
2710.00,98.37
2709.00,98.37
2708.00,98.37
2707.00,98.37
2706.00,98.37
2705.00,98.37
2704.00,98.37
2703.00,98.37
2702.00,98.37
2701.00,98.37
2700.00,98.37
2699.00,98.37
2698.00,98.37
2697.00,98.37
2696.00,98.37
2695.00,98.37
2694.00,98.37
2693.00,98.37
2692.00,98.37
2691.00,98.37
2690.00,98.37
2689.00,98.37
2688.00,98.37
2687.00,98.37
2686.00,98.37
2685.00,98.37
2684.00,98.37
2683.00,98.37
2682.00,98.37
2681.00,98.37
2680.00,98.37
2679.00,98.37
2678.00,98.37
2677.00,98.37
2676.00,98.37
2675.00,98.37
2674.00,98.37
2673.00,98.37
2672.00,98.36
2671.00,98.36
2670.00,98.36
2669.00,98.36
2668.00,98.36
2667.00,98.36
2666.00,98.36
2665.00,98.35
2664.00,98.34
2663.00,98.33
2662.00,98.32
2661.00,98.31
2660.00,98.30
2659.00,98.29
2658.00,98.29
2657.00,98.28
2656.00,98.27
2655.00,98.27
2654.00,98.26
2653.00,98.26
2652.00,98.26
2651.00,98.25
2650.00,98.25
2649.00,98.25
2648.00,98.24
2647.00,98.24
2646.00,98.24
2645.00,98.24
2644.00,98.24
2643.00,98.24
2642.00,98.24
2641.00,98.23
2640.00,98.23
2639.00,98.23
2638.00,98.23
2637.00,98.23
2636.00,98.23
2635.00,98.23
2634.00,98.23
2633.00,98.22
2632.00,98.22
2631.00,98.23
2630.00,98.23
2629.00,98.23
2628.00,98.23
2627.00,98.23
2626.00,98.23
2625.00,98.23
2624.00,98.23
2623.00,98.23
2622.00,98.23
2621.00,98.23
2620.00,98.23
2619.00,98.23
2618.00,98.23
2617.00,98.23
2616.00,98.23
2615.00,98.23
2614.00,98.23
2613.00,98.23
2612.00,98.23
2611.00,98.23
2610.00,98.23
2609.00,98.22
2608.00,98.22
2607.00,98.22
2606.00,98.22
2605.00,98.21
2604.00,98.21
2603.00,98.21
2602.00,98.21
2601.00,98.21
2600.00,98.21
2599.00,98.21
2598.00,98.21
2597.00,98.21
2596.00,98.22
2595.00,98.22
2594.00,98.22
2593.00,98.22
2592.00,98.22
2591.00,98.22
2590.00,98.23
2589.00,98.23
2588.00,98.23
2587.00,98.22
2586.00,98.22
2585.00,98.22
2584.00,98.23
2583.00,98.23
2582.00,98.24
2581.00,98.24
2580.00,98.24
2579.00,98.24
2578.00,98.24
2577.00,98.24
2576.00,98.24
2575.00,98.24
2574.00,98.24
2573.00,98.24
2572.00,98.24
2571.00,98.24
2570.00,98.24
2569.00,98.25
2568.00,98.25
2567.00,98.25
2566.00,98.25
2565.00,98.25
2564.00,98.25
2563.00,98.25
2562.00,98.25
2561.00,98.26
2560.00,98.27
2559.00,98.27
2558.00,98.26
2557.00,98.25
2556.00,98.24
2555.00,98.24
2554.00,98.25
2553.00,98.25
2552.00,98.26
2551.00,98.26
2550.00,98.26
2549.00,98.26
2548.00,98.27
2547.00,98.27
2546.00,98.27
2545.00,98.26
2544.00,98.26
2543.00,98.26
2542.00,98.26
2541.00,98.26
2540.00,98.27
2539.00,98.27
2538.00,98.27
2537.00,98.27
2536.00,98.27
2535.00,98.27
2534.00,98.27
2533.00,98.27
2532.00,98.27
2531.00,98.27
2530.00,98.28
2529.00,98.28
2528.00,98.29
2527.00,98.29
2526.00,98.29
2525.00,98.29
2524.00,98.29
2523.00,98.29
2522.00,98.29
2521.00,98.29
2520.00,98.29
2519.00,98.29
2518.00,98.30
2517.00,98.30
2516.00,98.30
2515.00,98.30
2514.00,98.30
2513.00,98.30
2512.00,98.30
2511.00,98.30
2510.00,98.30
2509.00,98.30
2508.00,98.31
2507.00,98.31
2506.00,98.31
2505.00,98.31
2504.00,98.31
2503.00,98.31
2502.00,98.31
2501.00,98.31
2500.00,98.31
2499.00,98.31
2498.00,98.31
2497.00,98.31
2496.00,98.31
2495.00,98.31
2494.00,98.31
2493.00,98.31
2492.00,98.31
2491.00,98.31
2490.00,98.31
2489.00,98.31
2488.00,98.31
2487.00,98.31
2486.00,98.31
2485.00,98.32
2484.00,98.32
2483.00,98.32
2482.00,98.32
2481.00,98.32
2480.00,98.32
2479.00,98.31
2478.00,98.31
2477.00,98.31
2476.00,98.31
2475.00,98.31
2474.00,98.31
2473.00,98.31
2472.00,98.31
2471.00,98.31
2470.00,98.31
2469.00,98.31
2468.00,98.31
2467.00,98.31
2466.00,98.31
2465.00,98.31
2464.00,98.30
2463.00,98.30
2462.00,98.30
2461.00,98.29
2460.00,98.29
2459.00,98.28
2458.00,98.28
2457.00,98.27
2456.00,98.27
2455.00,98.27
2454.00,98.27
2453.00,98.27
2452.00,98.27
2451.00,98.27
2450.00,98.28
2449.00,98.28
2448.00,98.28
2447.00,98.28
2446.00,98.28
2445.00,98.29
2444.00,98.29
2443.00,98.29
2442.00,98.29
2441.00,98.28
2440.00,98.28
2439.00,98.28
2438.00,98.27
2437.00,98.27
2436.00,98.27
2435.00,98.28
2434.00,98.28
2433.00,98.28
2432.00,98.28
2431.00,98.28
2430.00,98.28
2429.00,98.29
2428.00,98.29
2427.00,98.29
2426.00,98.29
2425.00,98.29
2424.00,98.29
2423.00,98.28
2422.00,98.28
2421.00,98.28
2420.00,98.28
2419.00,98.28
2418.00,98.29
2417.00,98.29
2416.00,98.29
2415.00,98.29
2414.00,98.29
2413.00,98.29
2412.00,98.29
2411.00,98.29
2410.00,98.29
2409.00,98.30
2408.00,98.30
2407.00,98.31
2406.00,98.32
2405.00,98.33
2404.00,98.33
2403.00,98.33
2402.00,98.33
2401.00,98.33
2400.00,98.33
2399.00,98.33
2398.00,98.34
2397.00,98.34
2396.00,98.34
2395.00,98.34
2394.00,98.34
2393.00,98.34
2392.00,98.34
2391.00,98.34
2390.00,98.34
2389.00,98.34
2388.00,98.34
2387.00,98.34
2386.00,98.34
2385.00,98.34
2384.00,98.34
2383.00,98.35
2382.00,98.35
2381.00,98.35
2380.00,98.35
2379.00,98.36
2378.00,98.36
2377.00,98.36
2376.00,98.36
2375.00,98.35
2374.00,98.35
2373.00,98.35
2372.00,98.35
2371.00,98.36
2370.00,98.36
2369.00,98.36
2368.00,98.35
2367.00,98.34
2366.00,98.33
2365.00,98.33
2364.00,98.33
2363.00,98.33
2362.00,98.32
2361.00,98.30
2360.00,98.29
2359.00,98.29
2358.00,98.29
2357.00,98.30
2356.00,98.31
2355.00,98.31
2354.00,98.31
2353.00,98.31
2352.00,98.31
2351.00,98.30
2350.00,98.31
2349.00,98.31
2348.00,98.32
2347.00,98.31
2346.00,98.30
2345.00,98.30
2344.00,98.29
2343.00,98.28
2342.00,98.27
2341.00,98.26
2340.00,98.25
2339.00,98.24
2338.00,98.24
2337.00,98.23
2336.00,98.23
2335.00,98.23
2334.00,98.24
2333.00,98.24
2332.00,98.25
2331.00,98.25
2330.00,98.25
2329.00,98.25
2328.00,98.24
2327.00,98.21
2326.00,98.15
2325.00,98.09
2324.00,98.04
2323.00,98.03
2322.00,98.05
2321.00,98.07
2320.00,98.09
2319.00,98.10
2318.00,98.11
2317.00,98.12
2316.00,98.14
2315.00,98.14
2314.00,98.15
2313.00,98.15
2312.00,98.15
2311.00,98.15
2310.00,98.16
2309.00,98.16
2308.00,98.15
2307.00,98.15
2306.00,98.14
2305.00,98.14
2304.00,98.14
2303.00,98.14
2302.00,98.14
2301.00,98.14
2300.00,98.14
2299.00,98.14
2298.00,98.14
2297.00,98.14
2296.00,98.13
2295.00,98.12
2294.00,98.11
2293.00,98.10
2292.00,98.09
2291.00,98.07
2290.00,98.06
2289.00,98.04
2288.00,98.03
2287.00,98.02
2286.00,98.01
2285.00,98.01
2284.00,98.02
2283.00,98.03
2282.00,98.04
2281.00,98.05
2280.00,98.05
2279.00,98.06
2278.00,98.06
2277.00,98.06
2276.00,98.07
2275.00,98.08
2274.00,98.09
2273.00,98.09
2272.00,98.10
2271.00,98.10
2270.00,98.10
2269.00,98.09
2268.00,98.10
2267.00,98.10
2266.00,98.11
2265.00,98.12
2264.00,98.12
2263.00,98.13
2262.00,98.13
2261.00,98.13
2260.00,98.12
2259.00,98.12
2258.00,98.11
2257.00,98.11
2256.00,98.12
2255.00,98.13
2254.00,98.14
2253.00,98.15
2252.00,98.15
2251.00,98.14
2250.00,98.14
2249.00,98.13
2248.00,98.13
2247.00,98.12
2246.00,98.11
2245.00,98.11
2244.00,98.11
2243.00,98.10
2242.00,98.10
2241.00,98.10
2240.00,98.10
2239.00,98.10
2238.00,98.09
2237.00,98.09
2236.00,98.08
2235.00,98.07
2234.00,98.07
2233.00,98.08
2232.00,98.09
2231.00,98.09
2230.00,98.09
2229.00,98.09
2228.00,98.09
2227.00,98.09
2226.00,98.09
2225.00,98.09
2224.00,98.09
2223.00,98.09
2222.00,98.09
2221.00,98.10
2220.00,98.11
2219.00,98.11
2218.00,98.11
2217.00,98.10
2216.00,98.10
2215.00,98.09
2214.00,98.09
2213.00,98.09
2212.00,98.08
2211.00,98.07
2210.00,98.06
2209.00,98.05
2208.00,98.05
2207.00,98.05
2206.00,98.05
2205.00,98.06
2204.00,98.05
2203.00,98.04
2202.00,98.03
2201.00,98.02
2200.00,98.02
2199.00,98.02
2198.00,98.02
2197.00,98.02
2196.00,98.01
2195.00,98.00
2194.00,97.99
2193.00,97.99
2192.00,97.99
2191.00,97.99
2190.00,97.98
2189.00,97.96
2188.00,97.95
2187.00,97.94
2186.00,97.93
2185.00,97.93
2184.00,97.94
2183.00,97.96
2182.00,97.99
2181.00,98.02
2180.00,98.03
2179.00,98.02
2178.00,98.01
2177.00,98.02
2176.00,98.04
2175.00,98.06
2174.00,98.06
2173.00,98.04
2172.00,98.01
2171.00,97.98
2170.00,97.94
2169.00,97.90
2168.00,97.86
2167.00,97.82
2166.00,97.78
2165.00,97.74
2164.00,97.70
2163.00,97.65
2162.00,97.61
2161.00,97.64
2160.00,97.78
2159.00,98.01
2158.00,98.25
2157.00,98.41
2156.00,98.48
2155.00,98.47
2154.00,98.43
2153.00,98.39
2152.00,98.34
2151.00,98.30
2150.00,98.27
2149.00,98.26
2148.00,98.27
2147.00,98.29
2146.00,98.31
2145.00,98.32
2144.00,98.32
2143.00,98.30
2142.00,98.28
2141.00,98.27
2140.00,98.26
2139.00,98.26
2138.00,98.27
2137.00,98.30
2136.00,98.32
2135.00,98.35
2134.00,98.38
2133.00,98.40
2132.00,98.41
2131.00,98.39
2130.00,98.36
2129.00,98.34
2128.00,98.32
2127.00,98.31
2126.00,98.29
2125.00,98.28
2124.00,98.26
2123.00,98.24
2122.00,98.22
2121.00,98.21
2120.00,98.20
2119.00,98.18
2118.00,98.16
2117.00,98.15
2116.00,98.12
2115.00,98.10
2114.00,98.09
2113.00,98.08
2112.00,98.08
2111.00,98.07
2110.00,98.07
2109.00,98.07
2108.00,98.07
2107.00,98.07
2106.00,98.07
2105.00,98.06
2104.00,98.05
2103.00,98.05
2102.00,98.06
2101.00,98.07
2100.00,98.07
2099.00,98.07
2098.00,98.07
2097.00,98.08
2096.00,98.10
2095.00,98.13
2094.00,98.14
2093.00,98.14
2092.00,98.13
2091.00,98.12
2090.00,98.10
2089.00,98.08
2088.00,98.07
2087.00,98.05
2086.00,98.04
2085.00,98.03
2084.00,98.02
2083.00,98.01
2082.00,98.00
2081.00,98.00
2080.00,97.99
2079.00,97.98
2078.00,97.97
2077.00,97.97
2076.00,97.97
2075.00,97.97
2074.00,97.97
2073.00,97.98
2072.00,97.99
2071.00,97.99
2070.00,97.99
2069.00,97.99
2068.00,97.98
2067.00,97.97
2066.00,97.97
2065.00,97.96
2064.00,97.97
2063.00,97.97
2062.00,97.97
2061.00,97.97
2060.00,97.97
2059.00,97.96
2058.00,97.94
2057.00,97.92
2056.00,97.91
2055.00,97.91
2054.00,97.90
2053.00,97.87
2052.00,97.81
2051.00,97.75
2050.00,97.72
2049.00,97.74
2048.00,97.79
2047.00,97.83
2046.00,97.84
2045.00,97.84
2044.00,97.84
2043.00,97.84
2042.00,97.83
2041.00,97.82
2040.00,97.80
2039.00,97.79
2038.00,97.78
2037.00,97.78
2036.00,97.79
2035.00,97.81
2034.00,97.85
2033.00,97.89
2032.00,97.91
2031.00,97.90
2030.00,97.89
2029.00,97.90
2028.00,97.92
2027.00,97.94
2026.00,97.95
2025.00,97.96
2024.00,97.96
2023.00,97.95
2022.00,97.95
2021.00,97.97
2020.00,97.98
2019.00,97.99
2018.00,97.98
2017.00,97.96
2016.00,97.94
2015.00,97.92
2014.00,97.91
2013.00,97.92
2012.00,97.93
2011.00,97.93
2010.00,97.92
2009.00,97.93
2008.00,97.97
2007.00,98.02
2006.00,98.08
2005.00,98.11
2004.00,98.11
2003.00,98.08
2002.00,98.04
2001.00,98.02
2000.00,98.01
1999.00,97.99
1998.00,97.98
1997.00,97.97
1996.00,97.96
1995.00,97.94
1994.00,97.93
1993.00,97.92
1992.00,97.91
1991.00,97.90
1990.00,97.89
1989.00,97.89
1988.00,97.88
1987.00,97.87
1986.00,97.85
1985.00,97.84
1984.00,97.82
1983.00,97.78
1982.00,97.72
1981.00,97.66
1980.00,97.63
1979.00,97.65
1978.00,97.72
1977.00,97.83
1976.00,97.92
1975.00,97.97
1974.00,97.98
1973.00,97.98
1972.00,97.98
1971.00,97.97
1970.00,97.96
1969.00,97.98
1968.00,98.00
1967.00,98.02
1966.00,98.02
1965.00,98.02
1964.00,98.03
1963.00,98.04
1962.00,98.05
1961.00,98.08
1960.00,98.11
1959.00,98.13
1958.00,98.14
1957.00,98.14
1956.00,98.14
1955.00,98.12
1954.00,98.11
1953.00,98.10
1952.00,98.10
1951.00,98.10
1950.00,98.10
1949.00,98.12
1948.00,98.14
1947.00,98.16
1946.00,98.16
1945.00,98.17
1944.00,98.18
1943.00,98.18
1942.00,98.18
1941.00,98.18
1940.00,98.18
1939.00,98.19
1938.00,98.19
1937.00,98.20
1936.00,98.21
1935.00,98.21
1934.00,98.22
1933.00,98.23
1932.00,98.25
1931.00,98.25
1930.00,98.26
1929.00,98.26
1928.00,98.27
1927.00,98.27
1926.00,98.28
1925.00,98.28
1924.00,98.28
1923.00,98.28
1922.00,98.27
1921.00,98.26
1920.00,98.25
1919.00,98.26
1918.00,98.27
1917.00,98.28
1916.00,98.29
1915.00,98.29
1914.00,98.29
1913.00,98.29
1912.00,98.29
1911.00,98.29
1910.00,98.29
1909.00,98.30
1908.00,98.31
1907.00,98.31
1906.00,98.31
1905.00,98.31
1904.00,98.32
1903.00,98.32
1902.00,98.32
1901.00,98.33
1900.00,98.34
1899.00,98.34
1898.00,98.35
1897.00,98.36
1896.00,98.37
1895.00,98.37
1894.00,98.37
1893.00,98.37
1892.00,98.37
1891.00,98.36
1890.00,98.36
1889.00,98.36
1888.00,98.37
1887.00,98.37
1886.00,98.37
1885.00,98.38
1884.00,98.38
1883.00,98.38
1882.00,98.38
1881.00,98.38
1880.00,98.39
1879.00,98.39
1878.00,98.39
1877.00,98.39
1876.00,98.39
1875.00,98.39
1874.00,98.39
1873.00,98.39
1872.00,98.39
1871.00,98.39
1870.00,98.40
1869.00,98.41
1868.00,98.42
1867.00,98.41
1866.00,98.41
1865.00,98.42
1864.00,98.42
1863.00,98.42
1862.00,98.42
1861.00,98.42
1860.00,98.42
1859.00,98.42
1858.00,98.41
1857.00,98.41
1856.00,98.41
1855.00,98.41
1854.00,98.41
1853.00,98.41
1852.00,98.41
1851.00,98.41
1850.00,98.41
1849.00,98.41
1848.00,98.41
1847.00,98.41
1846.00,98.41
1845.00,98.41
1844.00,98.42
1843.00,98.41
1842.00,98.41
1841.00,98.41
1840.00,98.41
1839.00,98.40
1838.00,98.40
1837.00,98.40
1836.00,98.40
1835.00,98.41
1834.00,98.41
1833.00,98.41
1832.00,98.41
1831.00,98.41
1830.00,98.41
1829.00,98.41
1828.00,98.41
1827.00,98.40
1826.00,98.39
1825.00,98.39
1824.00,98.39
1823.00,98.39
1822.00,98.39
1821.00,98.40
1820.00,98.41
1819.00,98.43
1818.00,98.44
1817.00,98.46
1816.00,98.47
1815.00,98.46
1814.00,98.45
1813.00,98.44
1812.00,98.44
1811.00,98.43
1810.00,98.42
1809.00,98.42
1808.00,98.42
1807.00,98.42
1806.00,98.42
1805.00,98.42
1804.00,98.42
1803.00,98.41
1802.00,98.41
1801.00,98.41
1800.00,98.41
1799.00,98.41
1798.00,98.41
1797.00,98.41
1796.00,98.42
1795.00,98.42
1794.00,98.41
1793.00,98.41
1792.00,98.41
1791.00,98.41
1790.00,98.40
1789.00,98.41
1788.00,98.41
1787.00,98.41
1786.00,98.41
1785.00,98.41
1784.00,98.42
1783.00,98.42
1782.00,98.41
1781.00,98.41
1780.00,98.42
1779.00,98.41
1778.00,98.40
1777.00,98.41
1776.00,98.41
1775.00,98.41
1774.00,98.39
1773.00,98.38
1772.00,98.36
1771.00,98.33
1770.00,98.30
1769.00,98.28
1768.00,98.26
1767.00,98.22
1766.00,98.17
1765.00,98.14
1764.00,98.09
1763.00,98.02
1762.00,97.92
1761.00,97.82
1760.00,97.72
1759.00,97.58
1758.00,97.40
1757.00,97.17
1756.00,96.91
1755.00,96.62
1754.00,96.29
1753.00,95.89
1752.00,95.37
1751.00,94.69
1750.00,93.90
1749.00,93.05
1748.00,92.15
1747.00,91.20
1746.00,90.20
1745.00,89.14
1744.00,88.03
1743.00,86.89
1742.00,85.75
1741.00,84.58
1740.00,83.34
1739.00,82.15
1738.00,81.14
1737.00,80.29
1736.00,79.39
1735.00,78.25
1734.00,76.97
1733.00,75.88
1732.00,75.04
1731.00,74.26
1730.00,73.47
1729.00,72.73
1728.00,72.08
1727.00,71.53
1726.00,71.06
1725.00,70.72
1724.00,70.53
1723.00,70.47
1722.00,70.53
1721.00,70.72
1720.00,71.10
1719.00,71.79
1718.00,72.87
1717.00,74.19
1716.00,75.54
1715.00,76.85
1714.00,78.13
1713.00,79.40
1712.00,80.63
1711.00,81.83
1710.00,83.00
1709.00,84.10
1708.00,85.11
1707.00,86.12
1706.00,87.14
1705.00,88.04
1704.00,88.71
1703.00,89.22
1702.00,89.72
1701.00,90.34
1700.00,90.99
1699.00,91.46
1698.00,91.77
1697.00,92.04
1696.00,92.33
1695.00,92.61
1694.00,92.83
1693.00,92.97
1692.00,93.10
1691.00,93.26
1690.00,93.43
1689.00,93.58
1688.00,93.70
1687.00,93.81
1686.00,93.95
1685.00,94.12
1684.00,94.32
1683.00,94.49
1682.00,94.63
1681.00,94.75
1680.00,94.86
1679.00,94.98
1678.00,95.09
1677.00,95.19
1676.00,95.31
1675.00,95.45
1674.00,95.57
1673.00,95.65
1672.00,95.71
1671.00,95.79
1670.00,95.89
1669.00,95.97
1668.00,96.02
1667.00,96.08
1666.00,96.13
1665.00,96.17
1664.00,96.21
1663.00,96.26
1662.00,96.30
1661.00,96.33
1660.00,96.35
1659.00,96.38
1658.00,96.40
1657.00,96.42
1656.00,96.43
1655.00,96.46
1654.00,96.50
1653.00,96.53
1652.00,96.54
1651.00,96.55
1650.00,96.56
1649.00,96.56
1648.00,96.57
1647.00,96.57
1646.00,96.58
1645.00,96.58
1644.00,96.58
1643.00,96.59
1642.00,96.60
1641.00,96.60
1640.00,96.60
1639.00,96.61
1638.00,96.62
1637.00,96.62
1636.00,96.63
1635.00,96.64
1634.00,96.66
1633.00,96.67
1632.00,96.69
1631.00,96.70
1630.00,96.72
1629.00,96.74
1628.00,96.75
1627.00,96.77
1626.00,96.79
1625.00,96.80
1624.00,96.81
1623.00,96.83
1622.00,96.86
1621.00,96.87
1620.00,96.88
1619.00,96.90
1618.00,96.92
1617.00,96.94
1616.00,96.95
1615.00,96.97
1614.00,96.99
1613.00,97.01
1612.00,97.02
1611.00,97.05
1610.00,97.07
1609.00,97.09
1608.00,97.10
1607.00,97.12
1606.00,97.14
1605.00,97.15
1604.00,97.16
1603.00,97.18
1602.00,97.19
1601.00,97.20
1600.00,97.21
1599.00,97.22
1598.00,97.24
1597.00,97.26
1596.00,97.27
1595.00,97.29
1594.00,97.30
1593.00,97.31
1592.00,97.31
1591.00,97.32
1590.00,97.33
1589.00,97.33
1588.00,97.33
1587.00,97.34
1586.00,97.34
1585.00,97.35
1584.00,97.35
1583.00,97.36
1582.00,97.38
1581.00,97.38
1580.00,97.39
1579.00,97.40
1578.00,97.42
1577.00,97.42
1576.00,97.42
1575.00,97.42
1574.00,97.42
1573.00,97.42
1572.00,97.42
1571.00,97.43
1570.00,97.44
1569.00,97.45
1568.00,97.45
1567.00,97.45
1566.00,97.46
1565.00,97.47
1564.00,97.47
1563.00,97.48
1562.00,97.49
1561.00,97.49
1560.00,97.49
1559.00,97.49
1558.00,97.50
1557.00,97.50
1556.00,97.50
1555.00,97.50
1554.00,97.51
1553.00,97.51
1552.00,97.51
1551.00,97.52
1550.00,97.53
1549.00,97.53
1548.00,97.53
1547.00,97.54
1546.00,97.55
1545.00,97.56
1544.00,97.55
1543.00,97.56
1542.00,97.57
1541.00,97.57
1540.00,97.57
1539.00,97.57
1538.00,97.58
1537.00,97.58
1536.00,97.58
1535.00,97.59
1534.00,97.59
1533.00,97.60
1532.00,97.59
1531.00,97.60
1530.00,97.61
1529.00,97.61
1528.00,97.62
1527.00,97.62
1526.00,97.63
1525.00,97.63
1524.00,97.63
1523.00,97.63
1522.00,97.64
1521.00,97.63
1520.00,97.62
1519.00,97.62
1518.00,97.63
1517.00,97.62
1516.00,97.61
1515.00,97.60
1514.00,97.60
1513.00,97.59
1512.00,97.57
1511.00,97.56
1510.00,97.56
1509.00,97.54
1508.00,97.51
1507.00,97.45
1506.00,97.38
1505.00,97.31
1504.00,97.24
1503.00,97.17
1502.00,97.09
1501.00,96.98
1500.00,96.84
1499.00,96.68
1498.00,96.48
1497.00,96.21
1496.00,95.89
1495.00,95.58
1494.00,95.29
1493.00,94.98
1492.00,94.63
1491.00,94.23
1490.00,93.79
1489.00,93.37
1488.00,93.02
1487.00,92.73
1486.00,92.49
1485.00,92.30
1484.00,92.15
1483.00,92.03
1482.00,91.93
1481.00,91.84
1480.00,91.77
1479.00,91.73
1478.00,91.71
1477.00,91.69
1476.00,91.69
1475.00,91.71
1474.00,91.74
1473.00,91.79
1472.00,91.84
1471.00,91.89
1470.00,91.91
1469.00,91.90
1468.00,91.86
1467.00,91.81
1466.00,91.73
1465.00,91.60
1464.00,91.46
1463.00,91.34
1462.00,91.21
1461.00,91.08
1460.00,90.94
1459.00,90.78
1458.00,90.57
1457.00,90.28
1456.00,90.01
1455.00,89.77
1454.00,89.54
1453.00,89.28
1452.00,89.02
1451.00,88.79
1450.00,88.59
1449.00,88.41
1448.00,88.29
1447.00,88.23
1446.00,88.20
1445.00,88.19
1444.00,88.20
1443.00,88.20
1442.00,88.16
1441.00,88.07
1440.00,87.93
1439.00,87.75
1438.00,87.50
1437.00,87.19
1436.00,86.96
1435.00,86.87
1434.00,86.91
1433.00,87.07
1432.00,87.40
1431.00,87.93
1430.00,88.62
1429.00,89.37
1428.00,90.11
1427.00,90.80
1426.00,91.47
1425.00,92.14
1424.00,92.80
1423.00,93.34
1422.00,93.77
1421.00,94.13
1420.00,94.50
1419.00,94.85
1418.00,95.12
1417.00,95.32
1416.00,95.46
1415.00,95.57
1414.00,95.66
1413.00,95.74
1412.00,95.81
1411.00,95.84
1410.00,95.86
1409.00,95.86
1408.00,95.83
1407.00,95.78
1406.00,95.70
1405.00,95.59
1404.00,95.47
1403.00,95.34
1402.00,95.21
1401.00,95.06
1400.00,94.89
1399.00,94.69
1398.00,94.49
1397.00,94.29
1396.00,94.07
1395.00,93.81
1394.00,93.53
1393.00,93.27
1392.00,93.03
1391.00,92.81
1390.00,92.61
1389.00,92.46
1388.00,92.36
1387.00,92.33
1386.00,92.38
1385.00,92.47
1384.00,92.62
1383.00,92.80
1382.00,93.01
1381.00,93.24
1380.00,93.49
1379.00,93.74
1378.00,93.96
1377.00,94.15
1376.00,94.31
1375.00,94.42
1374.00,94.50
1373.00,94.55
1372.00,94.56
1371.00,94.55
1370.00,94.54
1369.00,94.52
1368.00,94.52
1367.00,94.52
1366.00,94.53
1365.00,94.56
1364.00,94.60
1363.00,94.65
1362.00,94.72
1361.00,94.78
1360.00,94.85
1359.00,94.91
1358.00,94.97
1357.00,95.03
1356.00,95.09
1355.00,95.15
1354.00,95.21
1353.00,95.26
1352.00,95.31
1351.00,95.36
1350.00,95.40
1349.00,95.44
1348.00,95.48
1347.00,95.51
1346.00,95.55
1345.00,95.58
1344.00,95.61
1343.00,95.63
1342.00,95.66
1341.00,95.68
1340.00,95.70
1339.00,95.72
1338.00,95.74
1337.00,95.75
1336.00,95.78
1335.00,95.80
1334.00,95.82
1333.00,95.84
1332.00,95.85
1331.00,95.85
1330.00,95.86
1329.00,95.86
1328.00,95.86
1327.00,95.87
1326.00,95.87
1325.00,95.88
1324.00,95.89
1323.00,95.90
1322.00,95.91
1321.00,95.92
1320.00,95.92
1319.00,95.91
1318.00,95.91
1317.00,95.90
1316.00,95.90
1315.00,95.89
1314.00,95.87
1313.00,95.85
1312.00,95.81
1311.00,95.77
1310.00,95.73
1309.00,95.68
1308.00,95.63
1307.00,95.57
1306.00,95.51
1305.00,95.44
1304.00,95.38
1303.00,95.32
1302.00,95.25
1301.00,95.18
1300.00,95.11
1299.00,95.04
1298.00,94.96
1297.00,94.88
1296.00,94.79
1295.00,94.69
1294.00,94.58
1293.00,94.45
1292.00,94.32
1291.00,94.17
1290.00,94.02
1289.00,93.85
1288.00,93.66
1287.00,93.44
1286.00,93.21
1285.00,92.95
1284.00,92.67
1283.00,92.36
1282.00,92.02
1281.00,91.66
1280.00,91.27
1279.00,90.86
1278.00,90.43
1277.00,89.98
1276.00,89.54
1275.00,89.11
1274.00,88.70
1273.00,88.33
1272.00,88.00
1271.00,87.73
1270.00,87.53
1269.00,87.38
1268.00,87.29
1267.00,87.26
1266.00,87.27
1265.00,87.31
1264.00,87.37
1263.00,87.45
1262.00,87.54
1261.00,87.64
1260.00,87.72
1259.00,87.80
1258.00,87.85
1257.00,87.87
1256.00,87.87
1255.00,87.85
1254.00,87.79
1253.00,87.71
1252.00,87.59
1251.00,87.44
1250.00,87.28
1249.00,87.09
1248.00,86.88
1247.00,86.65
1246.00,86.42
1245.00,86.20
1244.00,85.97
1243.00,85.77
1242.00,85.60
1241.00,85.46
1240.00,85.35
1239.00,85.29
1238.00,85.27
1237.00,85.31
1236.00,85.41
1235.00,85.56
1234.00,85.77
1233.00,86.02
1232.00,86.30
1231.00,86.62
1230.00,86.96
1229.00,87.32
1228.00,87.69
1227.00,88.07
1226.00,88.44
1225.00,88.80
1224.00,89.15
1223.00,89.50
1222.00,89.83
1221.00,90.13
1220.00,90.41
1219.00,90.66
1218.00,90.87
1217.00,91.05
1216.00,91.18
1215.00,91.27
1214.00,91.31
1213.00,91.31
1212.00,91.23
1211.00,91.10
1210.00,90.89
1209.00,90.61
1208.00,90.25
1207.00,89.81
1206.00,89.31
1205.00,88.73
1204.00,88.10
1203.00,87.42
1202.00,86.72
1201.00,85.99
1200.00,85.26
1199.00,84.54
1198.00,83.85
1197.00,83.18
1196.00,82.55
1195.00,81.99
1194.00,81.51
1193.00,81.11
1192.00,80.82
1191.00,80.63
1190.00,80.56
1189.00,80.59
1188.00,80.68
1187.00,80.83
1186.00,81.01
1185.00,81.19
1184.00,81.34
1183.00,81.46
1182.00,81.54
1181.00,81.57
1180.00,81.55
1179.00,81.51
1178.00,81.45
1177.00,81.37
1176.00,81.28
1175.00,81.20
1174.00,81.11
1173.00,81.02
1172.00,80.91
1171.00,80.79
1170.00,80.66
1169.00,80.50
1168.00,80.32
1167.00,80.12
1166.00,79.90
1165.00,79.66
1164.00,79.38
1163.00,79.09
1162.00,78.77
1161.00,78.42
1160.00,78.03
1159.00,77.62
1158.00,77.17
1157.00,76.66
1156.00,76.09
1155.00,75.46
1154.00,74.79
1153.00,74.07
1152.00,73.33
1151.00,72.59
1150.00,71.88
1149.00,71.22
1148.00,70.63
1147.00,70.13
1146.00,69.75
1145.00,69.47
1144.00,69.28
1143.00,69.20
1142.00,69.22
1141.00,69.31
1140.00,69.46
1139.00,69.69
1138.00,69.99
1137.00,70.35
1136.00,70.75
1135.00,71.19
1134.00,71.69
1133.00,72.21
1132.00,72.75
1131.00,73.31
1130.00,73.88
1129.00,74.45
1128.00,75.00
1127.00,75.54
1126.00,76.07
1125.00,76.59
1124.00,77.08
1123.00,77.56
1122.00,78.03
1121.00,78.48
1120.00,78.92
1119.00,79.34
1118.00,79.76
1117.00,80.15
1116.00,80.53
1115.00,80.91
1114.00,81.28
1113.00,81.65
1112.00,82.00
1111.00,82.35
1110.00,82.69
1109.00,83.02
1108.00,83.34
1107.00,83.65
1106.00,83.96
1105.00,84.25
1104.00,84.52
1103.00,84.78
1102.00,85.03
1101.00,85.26
1100.00,85.48
1099.00,85.70
1098.00,85.91
1097.00,86.11
1096.00,86.31
1095.00,86.51
1094.00,86.72
1093.00,86.93
1092.00,87.13
1091.00,87.33
1090.00,87.52
1089.00,87.70
1088.00,87.87
1087.00,88.02
1086.00,88.16
1085.00,88.29
1084.00,88.40
1083.00,88.50
1082.00,88.58
1081.00,88.65
1080.00,88.71
1079.00,88.76
1078.00,88.80
1077.00,88.82
1076.00,88.84
1075.00,88.84
1074.00,88.84
1073.00,88.82
1072.00,88.80
1071.00,88.76
1070.00,88.71
1069.00,88.64
1068.00,88.57
1067.00,88.50
1066.00,88.43
1065.00,88.38
1064.00,88.33
1063.00,88.32
1062.00,88.35
1061.00,88.42
1060.00,88.53
1059.00,88.70
1058.00,88.91
1057.00,89.16
1056.00,89.45
1055.00,89.76
1054.00,90.10
1053.00,90.45
1052.00,90.79
1051.00,91.11
1050.00,91.40
1049.00,91.65
1048.00,91.88
1047.00,92.09
1046.00,92.27
1045.00,92.42
1044.00,92.54
1043.00,92.65
1042.00,92.75
1041.00,92.84
1040.00,92.91
1039.00,92.97
1038.00,93.03
1037.00,93.08
1036.00,93.15
1035.00,93.21
1034.00,93.29
1033.00,93.36
1032.00,93.44
1031.00,93.52
1030.00,93.60
1029.00,93.67
1028.00,93.74
1027.00,93.80
1026.00,93.85
1025.00,93.88
1024.00,93.92
1023.00,93.94
1022.00,93.96
1021.00,93.97
1020.00,93.97
1019.00,93.96
1018.00,93.96
1017.00,93.97
1016.00,93.98
1015.00,94.00
1014.00,94.03
1013.00,94.04
1012.00,94.03
1011.00,94.00
1010.00,93.94
1009.00,93.86
1008.00,93.73
1007.00,93.55
1006.00,93.31
1005.00,93.00
1004.00,92.63
1003.00,92.21
1002.00,91.74
1001.00,91.24
1000.00,90.71
999.00,90.18
998.00,89.65
997.00,89.14
996.00,88.65
995.00,88.19
994.00,87.78
993.00,87.41
992.00,87.10
991.00,86.83
990.00,86.63
989.00,86.47
988.00,86.37
987.00,86.32
986.00,86.33
985.00,86.40
984.00,86.50
983.00,86.65
982.00,86.82
981.00,87.02
980.00,87.22
979.00,87.42
978.00,87.62
977.00,87.79
976.00,87.94
975.00,88.05
974.00,88.12
973.00,88.15
972.00,88.13
971.00,88.09
970.00,88.02
969.00,87.95
968.00,87.87
967.00,87.81
966.00,87.78
965.00,87.77
964.00,87.80
963.00,87.85
962.00,87.93
961.00,88.04
960.00,88.16
959.00,88.31
958.00,88.48
957.00,88.65
956.00,88.82
955.00,89.00
954.00,89.18
953.00,89.36
952.00,89.54
951.00,89.71
950.00,89.88
949.00,90.04
948.00,90.20
947.00,90.35
946.00,90.50
945.00,90.64
944.00,90.77
943.00,90.91
942.00,91.03
941.00,91.15
940.00,91.27
939.00,91.38
938.00,91.48
937.00,91.57
936.00,91.66
935.00,91.74
934.00,91.83
933.00,91.90
932.00,91.97
931.00,92.03
930.00,92.08
929.00,92.13
928.00,92.18
927.00,92.22
926.00,92.26
925.00,92.28
924.00,92.30
923.00,92.30
922.00,92.30
921.00,92.29
920.00,92.26
919.00,92.23
918.00,92.19
917.00,92.15
916.00,92.10
915.00,92.07
914.00,92.05
913.00,92.05
912.00,92.06
911.00,92.08
910.00,92.12
909.00,92.17
908.00,92.24
907.00,92.32
906.00,92.40
905.00,92.49
904.00,92.58
903.00,92.67
902.00,92.75
901.00,92.84
900.00,92.92
899.00,93.00
898.00,93.09
897.00,93.17
896.00,93.24
895.00,93.31
894.00,93.37
893.00,93.43
892.00,93.49
891.00,93.56
890.00,93.63
889.00,93.68
888.00,93.72
887.00,93.76
886.00,93.80
885.00,93.83
884.00,93.85
883.00,93.86
882.00,93.86
881.00,93.85
880.00,93.85
879.00,93.85
878.00,93.85
877.00,93.85
876.00,93.85
875.00,93.85
874.00,93.86
873.00,93.86
872.00,93.85
871.00,93.82
870.00,93.79
869.00,93.74
868.00,93.68
867.00,93.63
866.00,93.57
865.00,93.50
864.00,93.43
863.00,93.34
862.00,93.24
861.00,93.13
860.00,93.02
859.00,92.90
858.00,92.77
857.00,92.63
856.00,92.47
855.00,92.30
854.00,92.11
853.00,91.91
852.00,91.69
851.00,91.45
850.00,91.21
849.00,90.94
848.00,90.66
847.00,90.36
846.00,90.04
845.00,89.72
844.00,89.40
843.00,89.12
842.00,88.89
841.00,88.76
840.00,88.74
839.00,88.86
838.00,89.12
837.00,89.51
836.00,90.01
835.00,90.55
834.00,91.06
833.00,91.48
832.00,91.77
831.00,91.90
830.00,91.90
829.00,91.80
828.00,91.66
827.00,91.55
826.00,91.50
825.00,91.53
824.00,91.64
823.00,91.81
822.00,92.02
821.00,92.23
820.00,92.41
819.00,92.54
818.00,92.61
817.00,92.62
816.00,92.57
815.00,92.49
814.00,92.39
813.00,92.28
812.00,92.18
811.00,92.10
810.00,92.04
809.00,92.03
808.00,92.06
807.00,92.14
806.00,92.23
805.00,92.34
804.00,92.45
803.00,92.57
802.00,92.68
801.00,92.79
800.00,92.89
799.00,92.98
798.00,93.07
797.00,93.15
796.00,93.21
795.00,93.28
794.00,93.36
793.00,93.42
792.00,93.48
791.00,93.53
790.00,93.57
789.00,93.61
788.00,93.65
787.00,93.68
786.00,93.70
785.00,93.70
784.00,93.70
783.00,93.71
782.00,93.72
781.00,93.72
780.00,93.72
779.00,93.70
778.00,93.66
777.00,93.61
776.00,93.56
775.00,93.49
774.00,93.41
773.00,93.31
772.00,93.20
771.00,93.07
770.00,92.93
769.00,92.76
768.00,92.56
767.00,92.35
766.00,92.11
765.00,91.85
764.00,91.56
763.00,91.25
762.00,90.93
761.00,90.58
760.00,90.22
759.00,89.85
758.00,89.46
757.00,89.05
756.00,88.64
755.00,88.22
754.00,87.83
753.00,87.46
752.00,87.18
751.00,87.02
750.00,87.05
749.00,87.28
748.00,87.73
747.00,88.37
746.00,89.12
745.00,89.89
744.00,90.60
743.00,91.19
742.00,91.66
741.00,92.00
740.00,92.24
739.00,92.41
738.00,92.53
737.00,92.63
736.00,92.71
735.00,92.79
734.00,92.87
733.00,92.96
732.00,93.06
731.00,93.15
730.00,93.25
729.00,93.35
728.00,93.45
727.00,93.55
726.00,93.65
725.00,93.74
724.00,93.81
723.00,93.88
722.00,93.96
721.00,94.04
720.00,94.11
719.00,94.17
718.00,94.21
717.00,94.24
716.00,94.27
715.00,94.29
714.00,94.32
713.00,94.34
712.00,94.35
711.00,94.35
710.00,94.35
709.00,94.35
708.00,94.35
707.00,94.34
706.00,94.32
705.00,94.30
704.00,94.29
703.00,94.30
702.00,94.32
701.00,94.33
700.00,94.34
699.00,94.33
698.00,94.33
697.00,94.34
696.00,94.35
695.00,94.38
694.00,94.42
693.00,94.45
692.00,94.45
691.00,94.44
690.00,94.42
689.00,94.40
688.00,94.40
687.00,94.40
686.00,94.40
685.00,94.40
684.00,94.40
683.00,94.41
682.00,94.43
681.00,94.44
680.00,94.45
679.00,94.45
678.00,94.44
677.00,94.44
676.00,94.45
675.00,94.47
674.00,94.48
673.00,94.49
672.00,94.50
671.00,94.50
670.00,94.52
669.00,94.53
668.00,94.51
667.00,94.46
666.00,94.43
665.00,94.41
664.00,94.40
663.00,94.37
662.00,94.32
661.00,94.28
660.00,94.26
659.00,94.25
658.00,94.25
657.00,94.24
656.00,94.23
655.00,94.23
654.00,94.24
653.00,94.24
652.00,94.24
651.00,94.25
650.00,94.26
