Created as New Dataset,Acrylic Red
cm-1,%T
4000.00,98.90
3999.00,98.89
3998.00,98.89
3997.00,98.89
3996.00,98.89
3995.00,98.89
3994.00,98.89
3993.00,98.89
3992.00,98.89
3991.00,98.89
3990.00,98.90
3989.00,98.90
3988.00,98.90
3987.00,98.90
3986.00,98.90
3985.00,98.90
3984.00,98.90
3983.00,98.90
3982.00,98.90
3981.00,98.89
3980.00,98.89
3979.00,98.89
3978.00,98.89
3977.00,98.89
3976.00,98.89
3975.00,98.90
3974.00,98.90
3973.00,98.90
3972.00,98.90
3971.00,98.90
3970.00,98.90
3969.00,98.90
3968.00,98.90
3967.00,98.90
3966.00,98.91
3965.00,98.90
3964.00,98.90
3963.00,98.90
3962.00,98.90
3961.00,98.89
3960.00,98.89
3959.00,98.89
3958.00,98.89
3957.00,98.89
3956.00,98.88
3955.00,98.88
3954.00,98.88
3953.00,98.89
3952.00,98.89
3951.00,98.89
3950.00,98.89
3949.00,98.89
3948.00,98.89
3947.00,98.88
3946.00,98.88
3945.00,98.88
3944.00,98.87
3943.00,98.87
3942.00,98.87
3941.00,98.87
3940.00,98.88
3939.00,98.88
3938.00,98.89
3937.00,98.89
3936.00,98.89
3935.00,98.89
3934.00,98.89
3933.00,98.88
3932.00,98.88
3931.00,98.88
3930.00,98.87
3929.00,98.88
3928.00,98.88
3927.00,98.88
3926.00,98.88
3925.00,98.88
3924.00,98.88
3923.00,98.88
3922.00,98.88
3921.00,98.88
3920.00,98.88
3919.00,98.88
3918.00,98.88
3917.00,98.88
3916.00,98.88
3915.00,98.88
3914.00,98.88
3913.00,98.88
3912.00,98.88
3911.00,98.88
3910.00,98.88
3909.00,98.88
3908.00,98.88
3907.00,98.88
3906.00,98.87
3905.00,98.87
3904.00,98.87
3903.00,98.87
3902.00,98.87
3901.00,98.87
3900.00,98.87
3899.00,98.87
3898.00,98.87
3897.00,98.87
3896.00,98.87
3895.00,98.88
3894.00,98.88
3893.00,98.88
3892.00,98.88
3891.00,98.88
3890.00,98.88
3889.00,98.88
3888.00,98.88
3887.00,98.87
3886.00,98.87
3885.00,98.87
3884.00,98.87
3883.00,98.87
3882.00,98.87
3881.00,98.87
3880.00,98.87
3879.00,98.87
3878.00,98.87
3877.00,98.87
3876.00,98.87
3875.00,98.87
3874.00,98.87
3873.00,98.86
3872.00,98.86
3871.00,98.85
3870.00,98.86
3869.00,98.86
3868.00,98.86
3867.00,98.86
3866.00,98.86
3865.00,98.86
3864.00,98.86
3863.00,98.86
3862.00,98.86
3861.00,98.86
3860.00,98.86
3859.00,98.86
3858.00,98.86
3857.00,98.86
3856.00,98.86
3855.00,98.86
3854.00,98.85
3853.00,98.85
3852.00,98.85
3851.00,98.85
3850.00,98.85
3849.00,98.85
3848.00,98.85
3847.00,98.86
3846.00,98.86
3845.00,98.86
3844.00,98.86
3843.00,98.86
3842.00,98.86
3841.00,98.85
3840.00,98.84
3839.00,98.83
3838.00,98.83
3837.00,98.83
3836.00,98.84
3835.00,98.84
3834.00,98.84
3833.00,98.84
3832.00,98.84
3831.00,98.85
3830.00,98.85
3829.00,98.85
3828.00,98.85
3827.00,98.85
3826.00,98.85
3825.00,98.84
3824.00,98.84
3823.00,98.84
3822.00,98.83
3821.00,98.84
3820.00,98.84
3819.00,98.84
3818.00,98.84
3817.00,98.83
3816.00,98.83
3815.00,98.84
3814.00,98.84
3813.00,98.84
3812.00,98.84
3811.00,98.84
3810.00,98.85
3809.00,98.84
3808.00,98.84
3807.00,98.84
3806.00,98.84
3805.00,98.84
3804.00,98.84
3803.00,98.84
3802.00,98.83
3801.00,98.83
3800.00,98.83
3799.00,98.83
3798.00,98.83
3797.00,98.84
3796.00,98.84
3795.00,98.85
3794.00,98.85
3793.00,98.84
3792.00,98.84
3791.00,98.84
3790.00,98.85
3789.00,98.84
3788.00,98.84
3787.00,98.84
3786.00,98.84
3785.00,98.83
3784.00,98.83
3783.00,98.84
3782.00,98.84
3781.00,98.83
3780.00,98.83
3779.00,98.83
3778.00,98.83
3777.00,98.83
3776.00,98.83
3775.00,98.83
3774.00,98.83
3773.00,98.83
3772.00,98.83
3771.00,98.83
3770.00,98.83
3769.00,98.83
3768.00,98.83
3767.00,98.82
3766.00,98.82
3765.00,98.82
3764.00,98.82
3763.00,98.82
3762.00,98.82
3761.00,98.82
3760.00,98.82
3759.00,98.82
3758.00,98.81
3757.00,98.81
3756.00,98.81
3755.00,98.80
3754.00,98.80
3753.00,98.80
3752.00,98.80
3751.00,98.80
3750.00,98.79
3749.00,98.79
3748.00,98.80
3747.00,98.80
3746.00,98.79
3745.00,98.79
3744.00,98.80
3743.00,98.80
3742.00,98.80
3741.00,98.80
3740.00,98.80
3739.00,98.80
3738.00,98.81
3737.00,98.81
3736.00,98.81
3735.00,98.81
3734.00,98.81
3733.00,98.81
3732.00,98.80
3731.00,98.80
3730.00,98.80
3729.00,98.81
3728.00,98.81
3727.00,98.81
3726.00,98.81
3725.00,98.81
3724.00,98.81
3723.00,98.81
3722.00,98.81
3721.00,98.82
3720.00,98.82
3719.00,98.82
3718.00,98.81
3717.00,98.81
3716.00,98.81
3715.00,98.81
3714.00,98.81
3713.00,98.81
3712.00,98.82
3711.00,98.82
3710.00,98.82
3709.00,98.81
3708.00,98.81
3707.00,98.81
3706.00,98.82
3705.00,98.82
3704.00,98.82
3703.00,98.82
3702.00,98.82
3701.00,98.82
3700.00,98.82
3699.00,98.82
3698.00,98.82
3697.00,98.81
3696.00,98.81
3695.00,98.80
3694.00,98.80
3693.00,98.79
3692.00,98.79
3691.00,98.79
3690.00,98.78
3689.00,98.78
3688.00,98.78
3687.00,98.78
3686.00,98.78
3685.00,98.78
3684.00,98.78
3683.00,98.78
3682.00,98.78
3681.00,98.77
3680.00,98.77
3679.00,98.77
3678.00,98.76
3677.00,98.75
3676.00,98.74
3675.00,98.74
3674.00,98.74
3673.00,98.74
3672.00,98.74
3671.00,98.73
3670.00,98.73
3669.00,98.73
3668.00,98.73
3667.00,98.73
3666.00,98.73
3665.00,98.73
3664.00,98.73
3663.00,98.73
3662.00,98.72
3661.00,98.72
3660.00,98.71
3659.00,98.71
3658.00,98.70
3657.00,98.69
3656.00,98.69
3655.00,98.68
3654.00,98.68
3653.00,98.67
3652.00,98.66
3651.00,98.66
3650.00,98.65
3649.00,98.65
3648.00,98.65
3647.00,98.65
3646.00,98.65
3645.00,98.65
3644.00,98.66
3643.00,98.66
3642.00,98.66
3641.00,98.65
3640.00,98.65
3639.00,98.65
3638.00,98.65
3637.00,98.64
3636.00,98.64
3635.00,98.63
3634.00,98.63
3633.00,98.63
3632.00,98.63
3631.00,98.62
3630.00,98.62
3629.00,98.62
3628.00,98.63
3627.00,98.63
3626.00,98.63
3625.00,98.63
3624.00,98.63
3623.00,98.63
3622.00,98.63
3621.00,98.63
3620.00,98.63
3619.00,98.63
3618.00,98.63
3617.00,98.63
3616.00,98.62
3615.00,98.62
3614.00,98.62
3613.00,98.63
3612.00,98.63
3611.00,98.64
3610.00,98.65
3609.00,98.65
3608.00,98.65
3607.00,98.66
3606.00,98.66
3605.00,98.67
3604.00,98.68
3603.00,98.68
3602.00,98.68
3601.00,98.68
3600.00,98.68
3599.00,98.68
3598.00,98.69
3597.00,98.69
3596.00,98.69
3595.00,98.70
3594.00,98.70
3593.00,98.70
3592.00,98.70
3591.00,98.70
3590.00,98.71
3589.00,98.71
3588.00,98.71
3587.00,98.72
3586.00,98.72
3585.00,98.72
3584.00,98.72
3583.00,98.72
3582.00,98.73
3581.00,98.73
3580.00,98.73
3579.00,98.73
3578.00,98.73
3577.00,98.73
3576.00,98.73
3575.00,98.72
3574.00,98.72
3573.00,98.72
3572.00,98.73
3571.00,98.72
3570.00,98.72
3569.00,98.71
3568.00,98.70
3567.00,98.70
3566.00,98.70
3565.00,98.69
3564.00,98.69
3563.00,98.69
3562.00,98.69
3561.00,98.69
3560.00,98.69
3559.00,98.70
3558.00,98.70
3557.00,98.69
3556.00,98.69
3555.00,98.69
3554.00,98.69
3553.00,98.69
3552.00,98.68
3551.00,98.68
3550.00,98.67
3549.00,98.67
3548.00,98.67
3547.00,98.67
3546.00,98.68
3545.00,98.68
3544.00,98.68
3543.00,98.68
3542.00,98.68
3541.00,98.69
3540.00,98.69
3539.00,98.69
3538.00,98.70
3537.00,98.71
3536.00,98.71
3535.00,98.70
3534.00,98.70
3533.00,98.70
3532.00,98.70
3531.00,98.71
3530.00,98.71
3529.00,98.72
3528.00,98.72
3527.00,98.73
3526.00,98.73
3525.00,98.73
3524.00,98.73
3523.00,98.73
3522.00,98.73
3521.00,98.73
3520.00,98.73
3519.00,98.73
3518.00,98.74
3517.00,98.74
3516.00,98.74
3515.00,98.75
3514.00,98.75
3513.00,98.75
3512.00,98.75
3511.00,98.75
3510.00,98.75
3509.00,98.74
3508.00,98.74
3507.00,98.74
3506.00,98.75
3505.00,98.75
3504.00,98.75
3503.00,98.76
3502.00,98.76
3501.00,98.75
3500.00,98.75
3499.00,98.75
3498.00,98.75
3497.00,98.75
3496.00,98.75
3495.00,98.75
3494.00,98.75
3493.00,98.75
3492.00,98.75
3491.00,98.75
3490.00,98.75
3489.00,98.75
3488.00,98.75
3487.00,98.75
3486.00,98.74
3485.00,98.74
3484.00,98.74
3483.00,98.74
3482.00,98.75
3481.00,98.75
3480.00,98.75
3479.00,98.75
3478.00,98.74
3477.00,98.74
3476.00,98.73
3475.00,98.73
3474.00,98.72
3473.00,98.72
3472.00,98.72
3471.00,98.72
3470.00,98.73
3469.00,98.73
3468.00,98.73
3467.00,98.73
3466.00,98.71
3465.00,98.70
3464.00,98.69
3463.00,98.69
3462.00,98.69
3461.00,98.69
3460.00,98.69
3459.00,98.68
3458.00,98.67
3457.00,98.66
3456.00,98.66
3455.00,98.65
3454.00,98.65
3453.00,98.65
3452.00,98.64
3451.00,98.64
3450.00,98.64
3449.00,98.63
3448.00,98.62
3447.00,98.62
3446.00,98.61
3445.00,98.61
3444.00,98.61
3443.00,98.61
3442.00,98.61
3441.00,98.62
3440.00,98.62
3439.00,98.63
3438.00,98.64
3437.00,98.64
3436.00,98.65
3435.00,98.65
3434.00,98.65
3433.00,98.65
3432.00,98.65
3431.00,98.65
3430.00,98.65
3429.00,98.66
3428.00,98.66
3427.00,98.66
3426.00,98.67
3425.00,98.67
3424.00,98.68
3423.00,98.69
3422.00,98.69
3421.00,98.70
3420.00,98.70
3419.00,98.71
3418.00,98.71
3417.00,98.72
3416.00,98.72
3415.00,98.73
3414.00,98.73
3413.00,98.73
3412.00,98.74
3411.00,98.74
3410.00,98.74
3409.00,98.74
3408.00,98.75
3407.00,98.75
3406.00,98.75
3405.00,98.76
3404.00,98.76
3403.00,98.77
3402.00,98.78
3401.00,98.78
3400.00,98.78
3399.00,98.78
3398.00,98.78
3397.00,98.78
3396.00,98.78
3395.00,98.78
3394.00,98.78
3393.00,98.78
3392.00,98.79
3391.00,98.79
3390.00,98.79
3389.00,98.78
3388.00,98.78
3387.00,98.78
3386.00,98.79
3385.00,98.79
3384.00,98.79
3383.00,98.79
3382.00,98.79
3381.00,98.79
3380.00,98.79
3379.00,98.79
3378.00,98.79
3377.00,98.79
3376.00,98.80
3375.00,98.80
3374.00,98.80
3373.00,98.80
3372.00,98.80
3371.00,98.80
3370.00,98.80
3369.00,98.80
3368.00,98.80
3367.00,98.80
3366.00,98.80
3365.00,98.79
3364.00,98.80
3363.00,98.80
3362.00,98.80
3361.00,98.80
3360.00,98.79
3359.00,98.79
3358.00,98.79
3357.00,98.79
3356.00,98.80
3355.00,98.80
3354.00,98.80
3353.00,98.80
3352.00,98.80
3351.00,98.80
3350.00,98.80
3349.00,98.80
3348.00,98.80
3347.00,98.80
3346.00,98.80
3345.00,98.80
3344.00,98.80
3343.00,98.80
3342.00,98.80
3341.00,98.80
3340.00,98.80
3339.00,98.80
3338.00,98.80
3337.00,98.80
3336.00,98.80
3335.00,98.80
3334.00,98.80
3333.00,98.80
3332.00,98.80
3331.00,98.80
3330.00,98.80
3329.00,98.80
3328.00,98.80
3327.00,98.80
3326.00,98.80
3325.00,98.80
3324.00,98.80
3323.00,98.80
3322.00,98.80
3321.00,98.80
3320.00,98.79
3319.00,98.79
3318.00,98.79
3317.00,98.79
3316.00,98.79
3315.00,98.80
3314.00,98.80
3313.00,98.81
3312.00,98.80
3311.00,98.80
3310.00,98.80
3309.00,98.80
3308.00,98.80
3307.00,98.80
3306.00,98.80
3305.00,98.81
3304.00,98.81
3303.00,98.80
3302.00,98.80
3301.00,98.79
3300.00,98.79
3299.00,98.79
3298.00,98.80
3297.00,98.80
3296.00,98.80
3295.00,98.80
3294.00,98.80
3293.00,98.80
3292.00,98.80
3291.00,98.80
3290.00,98.80
3289.00,98.80
3288.00,98.80
3287.00,98.80
3286.00,98.80
3285.00,98.80
3284.00,98.80
3283.00,98.80
3282.00,98.79
3281.00,98.79
3280.00,98.79
3279.00,98.80
3278.00,98.80
3277.00,98.80
3276.00,98.80
3275.00,98.80
3274.00,98.80
3273.00,98.80
3272.00,98.80
3271.00,98.80
3270.00,98.80
3269.00,98.79
3268.00,98.79
3267.00,98.79
3266.00,98.79
3265.00,98.79
3264.00,98.78
3263.00,98.78
3262.00,98.78
3261.00,98.78
3260.00,98.78
3259.00,98.78
3258.00,98.78
3257.00,98.79
3256.00,98.79
3255.00,98.79
3254.00,98.79
3253.00,98.79
3252.00,98.79
3251.00,98.79
3250.00,98.79
3249.00,98.79
3248.00,98.79
3247.00,98.78
3246.00,98.78
3245.00,98.78
3244.00,98.78
3243.00,98.79
3242.00,98.79
3241.00,98.79
3240.00,98.79
3239.00,98.79
3238.00,98.79
3237.00,98.79
3236.00,98.79
3235.00,98.79
3234.00,98.79
3233.00,98.79
3232.00,98.79
3231.00,98.78
3230.00,98.78
3229.00,98.77
3228.00,98.77
3227.00,98.78
3226.00,98.78
3225.00,98.78
3224.00,98.78
3223.00,98.78
3222.00,98.78
3221.00,98.78
3220.00,98.78
3219.00,98.78
3218.00,98.78
3217.00,98.78
3216.00,98.78
3215.00,98.78
3214.00,98.77
3213.00,98.77
3212.00,98.77
3211.00,98.78
3210.00,98.78
3209.00,98.78
3208.00,98.77
3207.00,98.77
3206.00,98.77
3205.00,98.77
3204.00,98.78
3203.00,98.78
3202.00,98.78
3201.00,98.78
3200.00,98.78
3199.00,98.77
3198.00,98.77
3197.00,98.77
3196.00,98.78
3195.00,98.78
3194.00,98.78
3193.00,98.78
3192.00,98.77
3191.00,98.77
3190.00,98.77
3189.00,98.77
3188.00,98.78
3187.00,98.78
3186.00,98.78
3185.00,98.78
3184.00,98.77
3183.00,98.77
3182.00,98.77
3181.00,98.77
3180.00,98.77
3179.00,98.76
3178.00,98.76
3177.00,98.76
3176.00,98.76
3175.00,98.76
3174.00,98.76
3173.00,98.76
3172.00,98.76
3171.00,98.76
3170.00,98.75
3169.00,98.75
3168.00,98.75
3167.00,98.75
3166.00,98.75
3165.00,98.75
3164.00,98.75
3163.00,98.75
3162.00,98.75
3161.00,98.75
3160.00,98.75
3159.00,98.75
3158.00,98.75
3157.00,98.75
3156.00,98.76
3155.00,98.76
3154.00,98.76
3153.00,98.75
3152.00,98.75
3151.00,98.75
3150.00,98.76
3149.00,98.76
3148.00,98.76
3147.00,98.76
3146.00,98.76
3145.00,98.76
3144.00,98.76
3143.00,98.76
3142.00,98.75
3141.00,98.75
3140.00,98.75
3139.00,98.75
3138.00,98.75
3137.00,98.74
3136.00,98.74
3135.00,98.74
3134.00,98.74
3133.00,98.74
3132.00,98.74
3131.00,98.74
3130.00,98.74
3129.00,98.74
3128.00,98.74
3127.00,98.74
3126.00,98.74
3125.00,98.73
3124.00,98.73
3123.00,98.74
3122.00,98.74
3121.00,98.74
3120.00,98.74
3119.00,98.73
3118.00,98.73
3117.00,98.73
3116.00,98.73
3115.00,98.73
3114.00,98.73
3113.00,98.72
3112.00,98.72
3111.00,98.72
3110.00,98.72
3109.00,98.72
3108.00,98.72
3107.00,98.72
3106.00,98.71
3105.00,98.71
3104.00,98.71
3103.00,98.72
3102.00,98.72
3101.00,98.71
3100.00,98.71
3099.00,98.71
3098.00,98.71
3097.00,98.71
3096.00,98.71
3095.00,98.70
3094.00,98.70
3093.00,98.69
3092.00,98.69
3091.00,98.69
3090.00,98.69
3089.00,98.69
3088.00,98.68
3087.00,98.68
3086.00,98.68
3085.00,98.67
3084.00,98.67
3083.00,98.67
3082.00,98.67
3081.00,98.67
3080.00,98.67
3079.00,98.67
3078.00,98.67
3077.00,98.66
3076.00,98.66
3075.00,98.66
3074.00,98.65
3073.00,98.65
3072.00,98.65
3071.00,98.64
3070.00,98.64
3069.00,98.64
3068.00,98.63
3067.00,98.62
3066.00,98.61
3065.00,98.61
3064.00,98.60
3063.00,98.59
3062.00,98.59
3061.00,98.58
3060.00,98.57
3059.00,98.57
3058.00,98.56
3057.00,98.55
3056.00,98.54
3055.00,98.53
3054.00,98.52
3053.00,98.51
3052.00,98.50
3051.00,98.49
3050.00,98.48
3049.00,98.46
3048.00,98.44
3047.00,98.42
3046.00,98.40
3045.00,98.38
3044.00,98.36
3043.00,98.33
3042.00,98.30
3041.00,98.27
3040.00,98.23
3039.00,98.20
3038.00,98.16
3037.00,98.13
3036.00,98.08
3035.00,98.04
3034.00,97.99
3033.00,97.94
3032.00,97.89
3031.00,97.84
3030.00,97.80
3029.00,97.75
3028.00,97.70
3027.00,97.65
3026.00,97.61
3025.00,97.57
3024.00,97.53
3023.00,97.49
3022.00,97.45
3021.00,97.41
3020.00,97.37
3019.00,97.33
3018.00,97.28
3017.00,97.24
3016.00,97.19
3015.00,97.14
3014.00,97.09
3013.00,97.03
3012.00,96.97
3011.00,96.91
3010.00,96.85
3009.00,96.79
3008.00,96.72
3007.00,96.65
3006.00,96.58
3005.00,96.52
3004.00,96.46
3003.00,96.40
3002.00,96.35
3001.00,96.30
3000.00,96.25
2999.00,96.21
2998.00,96.17
2997.00,96.15
2996.00,96.13
2995.00,96.12
2994.00,96.12
2993.00,96.12
2992.00,96.13
2991.00,96.15
2990.00,96.19
2989.00,96.23
2988.00,96.28
2987.00,96.33
2986.00,96.39
2985.00,96.45
2984.00,96.53
2983.00,96.60
2982.00,96.67
2981.00,96.74
2980.00,96.81
2979.00,96.87
2978.00,96.92
2977.00,96.96
2976.00,96.98
2975.00,97.00
2974.00,97.00
2973.00,96.99
2972.00,96.96
2971.00,96.93
2970.00,96.88
2969.00,96.82
2968.00,96.74
2967.00,96.66
2966.00,96.55
2965.00,96.44
2964.00,96.31
2963.00,96.17
2962.00,96.02
2961.00,95.86
2960.00,95.69
2959.00,95.51
2958.00,95.33
2957.00,95.15
2956.00,94.98
2955.00,94.82
2954.00,94.67
2953.00,94.55
2952.00,94.46
2951.00,94.41
2950.00,94.40
2949.00,94.44
2948.00,94.53
2947.00,94.65
2946.00,94.79
2945.00,94.95
2944.00,95.11
2943.00,95.26
2942.00,95.41
2941.00,95.54
2940.00,95.65
2939.00,95.75
2938.00,95.83
2937.00,95.89
2936.00,95.95
2935.00,96.00
2934.00,96.04
2933.00,96.08
2932.00,96.11
2931.00,96.15
2930.00,96.18
2929.00,96.21
2928.00,96.25
2927.00,96.28
2926.00,96.31
2925.00,96.35
2924.00,96.38
2923.00,96.42
2922.00,96.46
2921.00,96.49
2920.00,96.53
2919.00,96.56
2918.00,96.59
2917.00,96.63
2916.00,96.66
2915.00,96.69
2914.00,96.73
2913.00,96.76
2912.00,96.79
2911.00,96.82
2910.00,96.85
2909.00,96.88
2908.00,96.91
2907.00,96.94
2906.00,96.98
2905.00,97.02
2904.00,97.06
2903.00,97.10
2902.00,97.14
2901.00,97.17
2900.00,97.21
2899.00,97.24
2898.00,97.27
2897.00,97.30
2896.00,97.33
2895.00,97.35
2894.00,97.38
2893.00,97.40
2892.00,97.43
2891.00,97.45
2890.00,97.47
2889.00,97.49
2888.00,97.52
2887.00,97.54
2886.00,97.56
2885.00,97.59
2884.00,97.61
2883.00,97.64
2882.00,97.67
2881.00,97.69
2880.00,97.72
2879.00,97.74
2878.00,97.77
2877.00,97.80
2876.00,97.83
2875.00,97.86
2874.00,97.89
2873.00,97.91
2872.00,97.94
2871.00,97.96
2870.00,97.97
2869.00,97.99
2868.00,98.01
2867.00,98.03
2866.00,98.04
2865.00,98.05
2864.00,98.06
2863.00,98.07
2862.00,98.07
2861.00,98.07
2860.00,98.07
2859.00,98.07
2858.00,98.07
2857.00,98.07
2856.00,98.06
2855.00,98.04
2854.00,98.03
2853.00,98.01
2852.00,97.99
2851.00,97.97
2850.00,97.95
2849.00,97.93
2848.00,97.91
2847.00,97.89
2846.00,97.88
2845.00,97.86
2844.00,97.86
2843.00,97.86
2842.00,97.86
2841.00,97.87
2840.00,97.89
2839.00,97.91
2838.00,97.94
2837.00,97.97
2836.00,98.01
2835.00,98.05
2834.00,98.08
2833.00,98.11
2832.00,98.14
2831.00,98.17
2830.00,98.20
2829.00,98.22
2828.00,98.24
2827.00,98.26
2826.00,98.28
2825.00,98.30
2824.00,98.32
2823.00,98.34
2822.00,98.35
2821.00,98.36
2820.00,98.37
2819.00,98.39
2818.00,98.40
2817.00,98.41
2816.00,98.42
2815.00,98.42
2814.00,98.43
2813.00,98.44
2812.00,98.45
2811.00,98.45
2810.00,98.46
2809.00,98.47
2808.00,98.47
2807.00,98.48
2806.00,98.48
2805.00,98.48
2804.00,98.49
2803.00,98.49
2802.00,98.49
2801.00,98.49
2800.00,98.50
2799.00,98.50
2798.00,98.51
2797.00,98.51
2796.00,98.51
2795.00,98.52
2794.00,98.52
2793.00,98.52
2792.00,98.52
2791.00,98.52
2790.00,98.52
2789.00,98.52
2788.00,98.52
2787.00,98.52
2786.00,98.53
2785.00,98.53
2784.00,98.52
2783.00,98.52
2782.00,98.52
2781.00,98.52
2780.00,98.52
2779.00,98.53
2778.00,98.53
2777.00,98.53
2776.00,98.53
2775.00,98.53
2774.00,98.53
2773.00,98.53
2772.00,98.54
2771.00,98.54
2770.00,98.54
2769.00,98.54
2768.00,98.55
2767.00,98.55
2766.00,98.55
2765.00,98.55
2764.00,98.55
2763.00,98.55
2762.00,98.55
2761.00,98.55
2760.00,98.55
2759.00,98.55
2758.00,98.55
2757.00,98.56
2756.00,98.56
2755.00,98.56
2754.00,98.56
2753.00,98.56
2752.00,98.56
2751.00,98.56
2750.00,98.56
2749.00,98.56
2748.00,98.56
2747.00,98.56
2746.00,98.57
2745.00,98.57
2744.00,98.57
2743.00,98.57
2742.00,98.57
2741.00,98.58
2740.00,98.58
2739.00,98.58
2738.00,98.57
2737.00,98.57
2736.00,98.58
2735.00,98.58
2734.00,98.58
2733.00,98.58
2732.00,98.59
2731.00,98.59
2730.00,98.59
2729.00,98.59
2728.00,98.59
2727.00,98.59
2726.00,98.59
2725.00,98.59
2724.00,98.59
2723.00,98.59
2722.00,98.59
2721.00,98.59
2720.00,98.59
2719.00,98.59
2718.00,98.60
2717.00,98.60
2716.00,98.60
2715.00,98.60
2714.00,98.61
2713.00,98.60
2712.00,98.60
2711.00,98.60
2710.00,98.60
2709.00,98.60
2708.00,98.60
2707.00,98.61
2706.00,98.61
2705.00,98.61
2704.00,98.61
2703.00,98.61
2702.00,98.61
2701.00,98.61
2700.00,98.61
2699.00,98.61
2698.00,98.61
2697.00,98.61
2696.00,98.61
2695.00,98.61
2694.00,98.61
2693.00,98.61
2692.00,98.61
2691.00,98.61
2690.00,98.61
2689.00,98.61
2688.00,98.61
2687.00,98.61
2686.00,98.61
2685.00,98.61
2684.00,98.61
2683.00,98.61
2682.00,98.61
2681.00,98.60
2680.00,98.60
2679.00,98.61
2678.00,98.61
2677.00,98.61
2676.00,98.61
2675.00,98.61
2674.00,98.61
2673.00,98.61
2672.00,98.61
2671.00,98.61
2670.00,98.60
2669.00,98.60
2668.00,98.60
2667.00,98.59
2666.00,98.59
2665.00,98.58
2664.00,98.58
2663.00,98.57
2662.00,98.56
2661.00,98.55
2660.00,98.55
2659.00,98.54
2658.00,98.54
2657.00,98.53
2656.00,98.52
2655.00,98.52
2654.00,98.52
2653.00,98.51
2652.00,98.51
2651.00,98.51
2650.00,98.50
2649.00,98.50
2648.00,98.50
2647.00,98.50
2646.00,98.50
2645.00,98.50
2644.00,98.50
2643.00,98.50
2642.00,98.50
2641.00,98.50
2640.00,98.50
2639.00,98.49
2638.00,98.49
2637.00,98.49
2636.00,98.49
2635.00,98.49
2634.00,98.49
2633.00,98.49
2632.00,98.49
2631.00,98.49
2630.00,98.48
2629.00,98.48
2628.00,98.48
2627.00,98.49
2626.00,98.49
2625.00,98.49
2624.00,98.48
2623.00,98.48
2622.00,98.48
2621.00,98.48
2620.00,98.48
2619.00,98.48
2618.00,98.49
2617.00,98.49
2616.00,98.49
2615.00,98.49
2614.00,98.49
2613.00,98.49
2612.00,98.49
2611.00,98.49
2610.00,98.48
2609.00,98.48
2608.00,98.48
2607.00,98.48
2606.00,98.48
2605.00,98.48
2604.00,98.48
2603.00,98.48
2602.00,98.48
2601.00,98.48
2600.00,98.48
2599.00,98.48
2598.00,98.48
2597.00,98.48
2596.00,98.48
2595.00,98.47
2594.00,98.47
2593.00,98.47
2592.00,98.48
2591.00,98.48
2590.00,98.48
2589.00,98.48
2588.00,98.48
2587.00,98.48
2586.00,98.48
2585.00,98.49
2584.00,98.49
2583.00,98.48
2582.00,98.48
2581.00,98.48
2580.00,98.48
2579.00,98.48
2578.00,98.48
2577.00,98.48
2576.00,98.48
2575.00,98.49
2574.00,98.49
2573.00,98.50
2572.00,98.50
2571.00,98.50
2570.00,98.50
2569.00,98.51
2568.00,98.51
2567.00,98.51
2566.00,98.50
2565.00,98.50
2564.00,98.50
2563.00,98.50
2562.00,98.50
2561.00,98.50
2560.00,98.50
2559.00,98.50
2558.00,98.50
2557.00,98.50
2556.00,98.50
2555.00,98.50
2554.00,98.51
2553.00,98.51
2552.00,98.51
2551.00,98.51
2550.00,98.51
2549.00,98.51
2548.00,98.51
2547.00,98.51
2546.00,98.52
2545.00,98.52
2544.00,98.53
2543.00,98.53
2542.00,98.53
2541.00,98.53
2540.00,98.52
2539.00,98.52
2538.00,98.53
2537.00,98.53
2536.00,98.53
2535.00,98.52
2534.00,98.52
2533.00,98.52
2532.00,98.52
2531.00,98.53
2530.00,98.53
2529.00,98.54
2528.00,98.54
2527.00,98.53
2526.00,98.53
2525.00,98.54
2524.00,98.54
2523.00,98.55
2522.00,98.55
2521.00,98.55
2520.00,98.55
2519.00,98.55
2518.00,98.54
2517.00,98.54
2516.00,98.54
2515.00,98.54
2514.00,98.54
2513.00,98.55
2512.00,98.55
2511.00,98.55
2510.00,98.55
2509.00,98.55
2508.00,98.55
2507.00,98.55
2506.00,98.55
2505.00,98.55
2504.00,98.55
2503.00,98.55
2502.00,98.55
2501.00,98.54
2500.00,98.54
2499.00,98.54
2498.00,98.55
2497.00,98.55
2496.00,98.56
2495.00,98.56
2494.00,98.56
2493.00,98.55
2492.00,98.55
2491.00,98.55
2490.00,98.55
2489.00,98.55
2488.00,98.55
2487.00,98.55
2486.00,98.55
2485.00,98.55
2484.00,98.55
2483.00,98.56
2482.00,98.56
2481.00,98.56
2480.00,98.56
2479.00,98.56
2478.00,98.56
2477.00,98.56
2476.00,98.55
2475.00,98.55
2474.00,98.55
2473.00,98.55
2472.00,98.55
2471.00,98.56
2470.00,98.56
2469.00,98.56
2468.00,98.56
2467.00,98.56
2466.00,98.56
2465.00,98.56
2464.00,98.56
2463.00,98.55
2462.00,98.55
2461.00,98.54
2460.00,98.54
2459.00,98.53
2458.00,98.53
2457.00,98.53
2456.00,98.52
2455.00,98.52
2454.00,98.51
2453.00,98.51
2452.00,98.51
2451.00,98.52
2450.00,98.52
2449.00,98.53
2448.00,98.53
2447.00,98.53
2446.00,98.53
2445.00,98.52
2444.00,98.52
2443.00,98.53
2442.00,98.53
2441.00,98.53
2440.00,98.54
2439.00,98.54
2438.00,98.54
2437.00,98.54
2436.00,98.54
2435.00,98.53
2434.00,98.53
2433.00,98.53
2432.00,98.53
2431.00,98.53
2430.00,98.53
2429.00,98.53
2428.00,98.53
2427.00,98.53
2426.00,98.54
2425.00,98.54
2424.00,98.54
2423.00,98.53
2422.00,98.53
2421.00,98.53
2420.00,98.53
2419.00,98.53
2418.00,98.53
2417.00,98.53
2416.00,98.53
2415.00,98.54
2414.00,98.54
2413.00,98.53
2412.00,98.53
2411.00,98.53
2410.00,98.54
2409.00,98.54
2408.00,98.55
2407.00,98.55
2406.00,98.56
2405.00,98.56
2404.00,98.57
2403.00,98.56
2402.00,98.56
2401.00,98.56
2400.00,98.57
2399.00,98.57
2398.00,98.57
2397.00,98.57
2396.00,98.57
2395.00,98.57
2394.00,98.57
2393.00,98.57
2392.00,98.57
2391.00,98.57
2390.00,98.58
2389.00,98.58
2388.00,98.58
2387.00,98.59
2386.00,98.59
2385.00,98.60
2384.00,98.61
2383.00,98.62
2382.00,98.62
2381.00,98.63
2380.00,98.64
2379.00,98.65
2378.00,98.66
2377.00,98.66
2376.00,98.65
2375.00,98.64
2374.00,98.64
2373.00,98.63
2372.00,98.64
2371.00,98.64
2370.00,98.65
2369.00,98.65
2368.00,98.66
2367.00,98.65
2366.00,98.64
2365.00,98.63
2364.00,98.63
2363.00,98.63
2362.00,98.63
2361.00,98.64
2360.00,98.64
2359.00,98.64
2358.00,98.63
2357.00,98.63
2356.00,98.64
2355.00,98.64
2354.00,98.65
2353.00,98.64
2352.00,98.63
2351.00,98.62
2350.00,98.61
2349.00,98.60
2348.00,98.60
2347.00,98.60
2346.00,98.60
2345.00,98.60
2344.00,98.59
2343.00,98.58
2342.00,98.58
2341.00,98.58
2340.00,98.58
2339.00,98.57
2338.00,98.56
2337.00,98.55
2336.00,98.55
2335.00,98.55
2334.00,98.56
2333.00,98.56
2332.00,98.57
2331.00,98.57
2330.00,98.57
2329.00,98.56
2328.00,98.54
2327.00,98.50
2326.00,98.44
2325.00,98.39
2324.00,98.36
2323.00,98.35
2322.00,98.37
2321.00,98.39
2320.00,98.41
2319.00,98.42
2318.00,98.43
2317.00,98.44
2316.00,98.45
2315.00,98.46
2314.00,98.46
2313.00,98.47
2312.00,98.47
2311.00,98.47
2310.00,98.47
2309.00,98.46
2308.00,98.46
2307.00,98.45
2306.00,98.45
2305.00,98.44
2304.00,98.44
2303.00,98.44
2302.00,98.43
2301.00,98.43
2300.00,98.42
2299.00,98.42
2298.00,98.41
2297.00,98.41
2296.00,98.40
2295.00,98.39
2294.00,98.39
2293.00,98.38
2292.00,98.37
2291.00,98.36
2290.00,98.35
2289.00,98.33
2288.00,98.32
2287.00,98.30
2286.00,98.30
2285.00,98.29
2284.00,98.30
2283.00,98.31
2282.00,98.32
2281.00,98.33
2280.00,98.34
2279.00,98.34
2278.00,98.34
2277.00,98.35
2276.00,98.35
2275.00,98.36
2274.00,98.36
2273.00,98.35
2272.00,98.35
2271.00,98.36
2270.00,98.36
2269.00,98.36
2268.00,98.37
2267.00,98.38
2266.00,98.39
2265.00,98.39
2264.00,98.40
2263.00,98.40
2262.00,98.40
2261.00,98.39
2260.00,98.39
2259.00,98.38
2258.00,98.38
2257.00,98.38
2256.00,98.39
2255.00,98.40
2254.00,98.41
2253.00,98.41
2252.00,98.40
2251.00,98.40
2250.00,98.40
2249.00,98.40
2248.00,98.40
2247.00,98.40
2246.00,98.40
2245.00,98.39
2244.00,98.39
2243.00,98.39
2242.00,98.38
2241.00,98.37
2240.00,98.36
2239.00,98.36
2238.00,98.36
2237.00,98.37
2236.00,98.37
2235.00,98.36
2234.00,98.36
2233.00,98.36
2232.00,98.36
2231.00,98.36
2230.00,98.36
2229.00,98.37
2228.00,98.37
2227.00,98.37
2226.00,98.37
2225.00,98.38
2224.00,98.38
2223.00,98.38
2222.00,98.37
2221.00,98.37
2220.00,98.36
2219.00,98.36
2218.00,98.36
2217.00,98.36
2216.00,98.36
2215.00,98.35
2214.00,98.35
2213.00,98.35
2212.00,98.35
2211.00,98.35
2210.00,98.35
2209.00,98.35
2208.00,98.35
2207.00,98.35
2206.00,98.34
2205.00,98.34
2204.00,98.33
2203.00,98.33
2202.00,98.33
2201.00,98.32
2200.00,98.32
2199.00,98.31
2198.00,98.30
2197.00,98.29
2196.00,98.29
2195.00,98.29
2194.00,98.29
2193.00,98.30
2192.00,98.29
2191.00,98.28
2190.00,98.27
2189.00,98.25
2188.00,98.23
2187.00,98.22
2186.00,98.21
2185.00,98.22
2184.00,98.24
2183.00,98.28
2182.00,98.31
2181.00,98.33
2180.00,98.34
2179.00,98.32
2178.00,98.29
2177.00,98.28
2176.00,98.29
2175.00,98.31
2174.00,98.32
2173.00,98.32
2172.00,98.31
2171.00,98.28
2170.00,98.24
2169.00,98.19
2168.00,98.16
2167.00,98.13
2166.00,98.11
2165.00,98.09
2164.00,98.07
2163.00,98.05
2162.00,98.03
2161.00,98.06
2160.00,98.15
2159.00,98.32
2158.00,98.50
2157.00,98.63
2156.00,98.69
2155.00,98.69
2154.00,98.65
2153.00,98.61
2152.00,98.57
2151.00,98.55
2150.00,98.53
2149.00,98.52
2148.00,98.52
2147.00,98.53
2146.00,98.52
2145.00,98.52
2144.00,98.51
2143.00,98.51
2142.00,98.52
2141.00,98.52
2140.00,98.52
2139.00,98.51
2138.00,98.51
2137.00,98.52
2136.00,98.54
2135.00,98.57
2134.00,98.60
2133.00,98.63
2132.00,98.63
2131.00,98.62
2130.00,98.60
2129.00,98.58
2128.00,98.56
2127.00,98.54
2126.00,98.52
2125.00,98.51
2124.00,98.49
2123.00,98.47
2122.00,98.46
2121.00,98.45
2120.00,98.44
2119.00,98.43
2118.00,98.42
2117.00,98.41
2116.00,98.39
2115.00,98.37
2114.00,98.36
2113.00,98.36
2112.00,98.35
2111.00,98.35
2110.00,98.35
2109.00,98.34
2108.00,98.33
2107.00,98.33
2106.00,98.33
2105.00,98.33
2104.00,98.33
2103.00,98.33
2102.00,98.33
2101.00,98.33
2100.00,98.33
2099.00,98.33
2098.00,98.33
2097.00,98.35
2096.00,98.37
2095.00,98.40
2094.00,98.41
2093.00,98.41
2092.00,98.40
2091.00,98.38
2090.00,98.36
2089.00,98.35
2088.00,98.34
2087.00,98.33
2086.00,98.32
2085.00,98.32
2084.00,98.31
2083.00,98.29
2082.00,98.28
2081.00,98.27
2080.00,98.26
2079.00,98.27
2078.00,98.27
2077.00,98.28
2076.00,98.28
2075.00,98.28
2074.00,98.27
2073.00,98.26
2072.00,98.25
2071.00,98.25
2070.00,98.25
2069.00,98.26
2068.00,98.26
2067.00,98.26
2066.00,98.26
2065.00,98.25
2064.00,98.25
2063.00,98.25
2062.00,98.25
2061.00,98.25
2060.00,98.24
2059.00,98.23
2058.00,98.22
2057.00,98.20
2056.00,98.20
2055.00,98.20
2054.00,98.19
2053.00,98.17
2052.00,98.13
2051.00,98.08
2050.00,98.06
2049.00,98.08
2048.00,98.11
2047.00,98.14
2046.00,98.16
2045.00,98.17
2044.00,98.17
2043.00,98.17
2042.00,98.17
2041.00,98.17
2040.00,98.16
2039.00,98.14
2038.00,98.11
2037.00,98.11
2036.00,98.12
2035.00,98.15
2034.00,98.18
2033.00,98.20
2032.00,98.21
2031.00,98.21
2030.00,98.19
2029.00,98.19
2028.00,98.18
2027.00,98.18
2026.00,98.17
2025.00,98.18
2024.00,98.21
2023.00,98.23
2022.00,98.24
2021.00,98.25
2020.00,98.25
2019.00,98.25
2018.00,98.27
2017.00,98.29
2016.00,98.30
2015.00,98.29
2014.00,98.28
2013.00,98.27
2012.00,98.26
2011.00,98.25
2010.00,98.23
2009.00,98.22
2008.00,98.24
2007.00,98.27
2006.00,98.31
2005.00,98.34
2004.00,98.35
2003.00,98.35
2002.00,98.33
2001.00,98.31
2000.00,98.29
1999.00,98.27
1998.00,98.25
1997.00,98.23
1996.00,98.22
1995.00,98.20
1994.00,98.19
1993.00,98.19
1992.00,98.19
1991.00,98.18
1990.00,98.17
1989.00,98.15
1988.00,98.14
1987.00,98.14
1986.00,98.14
1985.00,98.14
1984.00,98.11
1983.00,98.07
1982.00,98.02
1981.00,97.98
1980.00,97.97
1979.00,97.99
1978.00,98.06
1977.00,98.14
1976.00,98.21
1975.00,98.25
1974.00,98.26
1973.00,98.27
1972.00,98.27
1971.00,98.26
1970.00,98.25
1969.00,98.26
1968.00,98.28
1967.00,98.28
1966.00,98.27
1965.00,98.27
1964.00,98.27
1963.00,98.28
1962.00,98.29
1961.00,98.32
1960.00,98.35
1959.00,98.37
1958.00,98.38
1957.00,98.39
1956.00,98.39
1955.00,98.38
1954.00,98.37
1953.00,98.36
1952.00,98.37
1951.00,98.37
1950.00,98.38
1949.00,98.38
1948.00,98.38
1947.00,98.38
1946.00,98.37
1945.00,98.38
1944.00,98.39
1943.00,98.40
1942.00,98.41
1941.00,98.42
1940.00,98.43
1939.00,98.43
1938.00,98.44
1937.00,98.45
1936.00,98.46
1935.00,98.45
1934.00,98.45
1933.00,98.46
1932.00,98.47
1931.00,98.48
1930.00,98.49
1929.00,98.50
1928.00,98.50
1927.00,98.50
1926.00,98.50
1925.00,98.50
1924.00,98.50
1923.00,98.50
1922.00,98.50
1921.00,98.50
1920.00,98.49
1919.00,98.49
1918.00,98.48
1917.00,98.47
1916.00,98.47
1915.00,98.48
1914.00,98.49
1913.00,98.50
1912.00,98.51
1911.00,98.51
1910.00,98.51
1909.00,98.52
1908.00,98.52
1907.00,98.51
1906.00,98.51
1905.00,98.51
1904.00,98.52
1903.00,98.53
1902.00,98.54
1901.00,98.54
1900.00,98.55
1899.00,98.55
1898.00,98.55
1897.00,98.55
1896.00,98.55
1895.00,98.55
1894.00,98.55
1893.00,98.55
1892.00,98.56
1891.00,98.57
1890.00,98.57
1889.00,98.57
1888.00,98.57
1887.00,98.57
1886.00,98.57
1885.00,98.58
1884.00,98.59
1883.00,98.59
1882.00,98.59
1881.00,98.59
1880.00,98.60
1879.00,98.60
1878.00,98.59
1877.00,98.59
1876.00,98.59
1875.00,98.58
1874.00,98.58
1873.00,98.58
1872.00,98.58
1871.00,98.59
1870.00,98.59
1869.00,98.60
1868.00,98.60
1867.00,98.60
1866.00,98.60
1865.00,98.60
1864.00,98.61
1863.00,98.61
1862.00,98.61
1861.00,98.61
1860.00,98.62
1859.00,98.62
1858.00,98.62
1857.00,98.62
1856.00,98.61
1855.00,98.61
1854.00,98.61
1853.00,98.61
1852.00,98.62
1851.00,98.62
1850.00,98.61
1849.00,98.61
1848.00,98.60
1847.00,98.60
1846.00,98.60
1845.00,98.61
1844.00,98.61
1843.00,98.60
1842.00,98.59
1841.00,98.59
1840.00,98.60
1839.00,98.60
1838.00,98.60
1837.00,98.60
1836.00,98.60
1835.00,98.60
1834.00,98.59
1833.00,98.59
1832.00,98.59
1831.00,98.59
1830.00,98.59
1829.00,98.59
1828.00,98.59
1827.00,98.59
1826.00,98.59
1825.00,98.60
1824.00,98.60
1823.00,98.59
1822.00,98.59
1821.00,98.59
1820.00,98.60
1819.00,98.61
1818.00,98.63
1817.00,98.64
1816.00,98.65
1815.00,98.64
1814.00,98.63
1813.00,98.63
1812.00,98.62
1811.00,98.62
1810.00,98.61
1809.00,98.61
1808.00,98.61
1807.00,98.61
1806.00,98.61
1805.00,98.61
1804.00,98.61
1803.00,98.61
1802.00,98.60
1801.00,98.60
1800.00,98.60
1799.00,98.60
1798.00,98.59
1797.00,98.59
1796.00,98.60
1795.00,98.60
1794.00,98.59
1793.00,98.60
1792.00,98.61
1791.00,98.61
1790.00,98.61
1789.00,98.61
1788.00,98.62
1787.00,98.61
1786.00,98.61
1785.00,98.62
1784.00,98.62
1783.00,98.62
1782.00,98.61
1781.00,98.62
1780.00,98.62
1779.00,98.61
1778.00,98.61
1777.00,98.61
1776.00,98.61
1775.00,98.60
1774.00,98.59
1773.00,98.59
1772.00,98.58
1771.00,98.56
1770.00,98.54
1769.00,98.53
1768.00,98.51
1767.00,98.47
1766.00,98.43
1765.00,98.40
1764.00,98.36
1763.00,98.30
1762.00,98.22
1761.00,98.14
1760.00,98.06
1759.00,97.95
1758.00,97.81
1757.00,97.63
1756.00,97.42
1755.00,97.19
1754.00,96.92
1753.00,96.60
1752.00,96.17
1751.00,95.61
1750.00,94.95
1749.00,94.24
1748.00,93.47
1747.00,92.66
1746.00,91.80
1745.00,90.90
1744.00,89.94
1743.00,88.96
1742.00,87.98
1741.00,86.96
1740.00,85.89
1739.00,84.85
1738.00,83.99
1737.00,83.28
1736.00,82.54
1735.00,81.54
1734.00,80.36
1733.00,79.36
1732.00,78.63
1731.00,77.96
1730.00,77.29
1729.00,76.64
1728.00,76.08
1727.00,75.61
1726.00,75.22
1725.00,74.92
1724.00,74.75
1723.00,74.70
1722.00,74.77
1721.00,74.97
1720.00,75.35
1719.00,75.96
1718.00,76.84
1717.00,77.92
1716.00,79.07
1715.00,80.22
1714.00,81.37
1713.00,82.49
1712.00,83.57
1711.00,84.64
1710.00,85.66
1709.00,86.61
1708.00,87.49
1707.00,88.35
1706.00,89.20
1705.00,89.94
1704.00,90.50
1703.00,90.94
1702.00,91.38
1701.00,91.89
1700.00,92.40
1699.00,92.78
1698.00,93.04
1697.00,93.27
1696.00,93.51
1695.00,93.75
1694.00,93.93
1693.00,94.06
1692.00,94.18
1691.00,94.31
1690.00,94.46
1689.00,94.58
1688.00,94.68
1687.00,94.78
1686.00,94.90
1685.00,95.04
1684.00,95.19
1683.00,95.33
1682.00,95.45
1681.00,95.55
1680.00,95.65
1679.00,95.76
1678.00,95.86
1677.00,95.95
1676.00,96.05
1675.00,96.16
1674.00,96.24
1673.00,96.30
1672.00,96.35
1671.00,96.42
1670.00,96.49
1669.00,96.55
1668.00,96.60
1667.00,96.64
1666.00,96.68
1665.00,96.72
1664.00,96.75
1663.00,96.79
1662.00,96.82
1661.00,96.85
1660.00,96.87
1659.00,96.89
1658.00,96.92
1657.00,96.93
1656.00,96.94
1655.00,96.96
1654.00,96.99
1653.00,97.00
1652.00,97.01
1651.00,97.02
1650.00,97.03
1649.00,97.03
1648.00,97.03
1647.00,97.02
1646.00,97.02
1645.00,97.01
1644.00,97.00
1643.00,96.99
1642.00,96.98
1641.00,96.97
1640.00,96.95
1639.00,96.95
1638.00,96.96
1637.00,96.96
1636.00,96.97
1635.00,96.99
1634.00,97.01
1633.00,97.02
1632.00,97.04
1631.00,97.06
1630.00,97.09
1629.00,97.11
1628.00,97.13
1627.00,97.15
1626.00,97.17
1625.00,97.19
1624.00,97.20
1623.00,97.23
1622.00,97.25
1621.00,97.26
1620.00,97.28
1619.00,97.29
1618.00,97.32
1617.00,97.33
1616.00,97.35
1615.00,97.37
1614.00,97.38
1613.00,97.39
1612.00,97.40
1611.00,97.42
1610.00,97.43
1609.00,97.43
1608.00,97.42
1607.00,97.42
1606.00,97.42
1605.00,97.41
1604.00,97.40
1603.00,97.40
1602.00,97.41
1601.00,97.42
1600.00,97.44
1599.00,97.47
1598.00,97.49
1597.00,97.51
1596.00,97.52
1595.00,97.54
1594.00,97.56
1593.00,97.57
1592.00,97.59
1591.00,97.60
1590.00,97.62
1589.00,97.63
1588.00,97.63
1587.00,97.64
1586.00,97.64
1585.00,97.65
1584.00,97.65
1583.00,97.66
1582.00,97.67
1581.00,97.67
1580.00,97.68
1579.00,97.69
1578.00,97.70
1577.00,97.71
1576.00,97.72
1575.00,97.73
1574.00,97.74
1573.00,97.74
1572.00,97.74
1571.00,97.74
1570.00,97.75
1569.00,97.75
1568.00,97.75
1567.00,97.75
1566.00,97.76
1565.00,97.76
1564.00,97.77
1563.00,97.77
1562.00,97.78
1561.00,97.78
1560.00,97.78
1559.00,97.78
1558.00,97.79
1557.00,97.78
1556.00,97.78
1555.00,97.79
1554.00,97.80
1553.00,97.81
1552.00,97.81
1551.00,97.81
1550.00,97.82
1549.00,97.82
1548.00,97.83
1547.00,97.83
1546.00,97.85
1545.00,97.85
1544.00,97.85
1543.00,97.85
1542.00,97.86
1541.00,97.86
1540.00,97.86
1539.00,97.87
1538.00,97.88
1537.00,97.88
1536.00,97.87
1535.00,97.88
1534.00,97.89
1533.00,97.89
1532.00,97.88
1531.00,97.89
1530.00,97.89
1529.00,97.89
1528.00,97.89
1527.00,97.89
1526.00,97.90
1525.00,97.90
1524.00,97.90
1523.00,97.91
1522.00,97.91
1521.00,97.91
1520.00,97.90
1519.00,97.89
1518.00,97.89
1517.00,97.88
1516.00,97.87
1515.00,97.86
1514.00,97.86
1513.00,97.86
1512.00,97.85
1511.00,97.85
1510.00,97.85
1509.00,97.84
1508.00,97.80
1507.00,97.75
1506.00,97.70
1505.00,97.64
1504.00,97.58
1503.00,97.52
1502.00,97.44
1501.00,97.33
1500.00,97.18
1499.00,97.00
1498.00,96.78
1497.00,96.49
1496.00,96.16
1495.00,95.87
1494.00,95.61
1493.00,95.36
1492.00,95.08
1491.00,94.77
1490.00,94.41
1489.00,94.05
1488.00,93.76
1487.00,93.53
1486.00,93.34
1485.00,93.19
1484.00,93.08
1483.00,93.00
1482.00,92.93
1481.00,92.88
1480.00,92.84
1479.00,92.83
1478.00,92.83
1477.00,92.84
1476.00,92.85
1475.00,92.88
1474.00,92.92
1473.00,92.96
1472.00,93.01
1471.00,93.06
1470.00,93.08
1469.00,93.09
1468.00,93.08
1467.00,93.04
1466.00,92.97
1465.00,92.85
1464.00,92.72
1463.00,92.60
1462.00,92.49
1461.00,92.38
1460.00,92.25
1459.00,92.09
1458.00,91.85
1457.00,91.51
1456.00,91.19
1455.00,90.95
1454.00,90.75
1453.00,90.53
1452.00,90.32
1451.00,90.14
1450.00,89.99
1449.00,89.85
1448.00,89.76
1447.00,89.72
1446.00,89.71
1445.00,89.72
1444.00,89.74
1443.00,89.75
1442.00,89.72
1441.00,89.65
1440.00,89.53
1439.00,89.38
1438.00,89.15
1437.00,88.85
1436.00,88.60
1435.00,88.49
1434.00,88.53
1433.00,88.68
1432.00,88.98
1431.00,89.46
1430.00,90.06
1429.00,90.73
1428.00,91.39
1427.00,92.01
1426.00,92.61
1425.00,93.20
1424.00,93.76
1423.00,94.23
1422.00,94.60
1421.00,94.91
1420.00,95.22
1419.00,95.51
1418.00,95.73
1417.00,95.91
1416.00,96.04
1415.00,96.14
1414.00,96.22
1413.00,96.29
1412.00,96.35
1411.00,96.38
1410.00,96.40
1409.00,96.40
1408.00,96.39
1407.00,96.34
1406.00,96.27
1405.00,96.19
1404.00,96.09
1403.00,95.99
1402.00,95.88
1401.00,95.76
1400.00,95.62
1399.00,95.46
1398.00,95.30
1397.00,95.14
1396.00,94.96
1395.00,94.74
1394.00,94.51
1393.00,94.29
1392.00,94.10
1391.00,93.91
1390.00,93.75
1389.00,93.63
1388.00,93.54
1387.00,93.52
1386.00,93.56
1385.00,93.65
1384.00,93.77
1383.00,93.93
1382.00,94.12
1381.00,94.32
1380.00,94.54
1379.00,94.75
1378.00,94.94
1377.00,95.10
1376.00,95.22
1375.00,95.32
1374.00,95.37
1373.00,95.40
1372.00,95.42
1371.00,95.42
1370.00,95.41
1369.00,95.40
1368.00,95.39
1367.00,95.38
1366.00,95.38
1365.00,95.39
1364.00,95.42
1363.00,95.45
1362.00,95.48
1361.00,95.52
1360.00,95.57
1359.00,95.62
1358.00,95.67
1357.00,95.73
1356.00,95.78
1355.00,95.83
1354.00,95.88
1353.00,95.93
1352.00,95.98
1351.00,96.02
1350.00,96.06
1349.00,96.09
1348.00,96.13
1347.00,96.15
1346.00,96.18
1345.00,96.21
1344.00,96.23
1343.00,96.25
1342.00,96.27
1341.00,96.29
1340.00,96.30
1339.00,96.31
1338.00,96.32
1337.00,96.32
1336.00,96.33
1335.00,96.34
1334.00,96.35
1333.00,96.34
1332.00,96.33
1331.00,96.31
1330.00,96.29
1329.00,96.26
1328.00,96.24
1327.00,96.23
1326.00,96.22
1325.00,96.22
1324.00,96.23
1323.00,96.26
1322.00,96.28
1321.00,96.31
1320.00,96.34
1319.00,96.37
1318.00,96.39
1317.00,96.40
1316.00,96.41
1315.00,96.41
1314.00,96.41
1313.00,96.39
1312.00,96.38
1311.00,96.35
1310.00,96.31
1309.00,96.27
1308.00,96.21
1307.00,96.15
1306.00,96.07
1305.00,95.99
1304.00,95.91
1303.00,95.83
1302.00,95.76
1301.00,95.71
1300.00,95.68
1299.00,95.65
1298.00,95.63
1297.00,95.60
1296.00,95.56
1295.00,95.52
1294.00,95.46
1293.00,95.38
1292.00,95.30
1291.00,95.20
1290.00,95.08
1289.00,94.94
1288.00,94.78
1287.00,94.61
1286.00,94.41
1285.00,94.19
1284.00,93.95
1283.00,93.68
1282.00,93.38
1281.00,93.06
1280.00,92.70
1279.00,92.31
1278.00,91.91
1277.00,91.49
1276.00,91.07
1275.00,90.66
1274.00,90.27
1273.00,89.92
1272.00,89.62
1271.00,89.38
1270.00,89.20
1269.00,89.10
1268.00,89.05
1267.00,89.05
1266.00,89.11
1265.00,89.19
1264.00,89.30
1263.00,89.41
1262.00,89.53
1261.00,89.65
1260.00,89.75
1259.00,89.84
1258.00,89.92
1257.00,89.96
1256.00,89.97
1255.00,89.96
1254.00,89.91
1253.00,89.83
1252.00,89.72
1251.00,89.58
1250.00,89.42
1249.00,89.24
1248.00,89.03
1247.00,88.82
1246.00,88.60
1245.00,88.38
1244.00,88.17
1243.00,87.99
1242.00,87.83
1241.00,87.69
1240.00,87.60
1239.00,87.54
1238.00,87.54
1237.00,87.58
1236.00,87.66
1235.00,87.79
1234.00,87.97
1233.00,88.19
1232.00,88.43
1231.00,88.70
1230.00,89.00
1229.00,89.30
1228.00,89.61
1227.00,89.93
1226.00,90.26
1225.00,90.57
1224.00,90.87
1223.00,91.15
1222.00,91.41
1221.00,91.65
1220.00,91.86
1219.00,92.05
1218.00,92.21
1217.00,92.34
1216.00,92.42
1215.00,92.48
1214.00,92.49
1213.00,92.45
1212.00,92.36
1211.00,92.22
1210.00,92.00
1209.00,91.73
1208.00,91.38
1207.00,90.97
1206.00,90.51
1205.00,89.99
1204.00,89.43
1203.00,88.84
1202.00,88.22
1201.00,87.59
1200.00,86.95
1199.00,86.32
1198.00,85.72
1197.00,85.15
1196.00,84.61
1195.00,84.14
1194.00,83.75
1193.00,83.43
1192.00,83.21
1191.00,83.08
1190.00,83.06
1189.00,83.11
1188.00,83.24
1187.00,83.42
1186.00,83.64
1185.00,83.85
1184.00,84.03
1183.00,84.18
1182.00,84.29
1181.00,84.35
1180.00,84.36
1179.00,84.35
1178.00,84.32
1177.00,84.26
1176.00,84.19
1175.00,84.11
1174.00,84.03
1173.00,83.94
1172.00,83.82
1171.00,83.70
1170.00,83.56
1169.00,83.40
1168.00,83.23
1167.00,83.04
1166.00,82.83
1165.00,82.61
1164.00,82.37
1163.00,82.12
1162.00,81.86
1161.00,81.57
1160.00,81.25
1159.00,80.89
1158.00,80.51
1157.00,80.07
1156.00,79.57
1155.00,79.02
1154.00,78.42
1153.00,77.77
1152.00,77.09
1151.00,76.42
1150.00,75.77
1149.00,75.18
1148.00,74.65
1147.00,74.21
1146.00,73.87
1145.00,73.63
1144.00,73.47
1143.00,73.41
1142.00,73.43
1141.00,73.53
1140.00,73.69
1139.00,73.91
1138.00,74.20
1137.00,74.53
1136.00,74.90
1135.00,75.31
1134.00,75.77
1133.00,76.24
1132.00,76.73
1131.00,77.22
1130.00,77.72
1129.00,78.21
1128.00,78.68
1127.00,79.15
1126.00,79.61
1125.00,80.05
1124.00,80.47
1123.00,80.89
1122.00,81.29
1121.00,81.68
1120.00,82.05
1119.00,82.41
1118.00,82.78
1117.00,83.13
1116.00,83.48
1115.00,83.81
1114.00,84.15
1113.00,84.48
1112.00,84.79
1111.00,85.11
1110.00,85.42
1109.00,85.71
1108.00,85.99
1107.00,86.26
1106.00,86.52
1105.00,86.78
1104.00,87.03
1103.00,87.28
1102.00,87.51
1101.00,87.73
1100.00,87.94
1099.00,88.14
1098.00,88.34
1097.00,88.54
1096.00,88.73
1095.00,88.91
1094.00,89.08
1093.00,89.24
1092.00,89.39
1091.00,89.54
1090.00,89.67
1089.00,89.80
1088.00,89.90
1087.00,90.00
1086.00,90.09
1085.00,90.16
1084.00,90.22
1083.00,90.27
1082.00,90.31
1081.00,90.33
1080.00,90.33
1079.00,90.33
1078.00,90.32
1077.00,90.30
1076.00,90.28
1075.00,90.27
1074.00,90.25
1073.00,90.22
1072.00,90.19
1071.00,90.15
1070.00,90.09
1069.00,90.02
1068.00,89.94
1067.00,89.87
1066.00,89.80
1065.00,89.75
1064.00,89.71
1063.00,89.70
1062.00,89.72
1061.00,89.78
1060.00,89.89
1059.00,90.05
1058.00,90.27
1057.00,90.53
1056.00,90.81
1055.00,91.13
1054.00,91.46
1053.00,91.79
1052.00,92.11
1051.00,92.41
1050.00,92.70
1049.00,92.96
1048.00,93.19
1047.00,93.38
1046.00,93.55
1045.00,93.70
1044.00,93.84
1043.00,93.95
1042.00,94.06
1041.00,94.15
1040.00,94.23
1039.00,94.30
1038.00,94.36
1037.00,94.42
1036.00,94.47
1035.00,94.52
1034.00,94.56
1033.00,94.59
1032.00,94.63
1031.00,94.67
1030.00,94.72
1029.00,94.77
1028.00,94.82
1027.00,94.87
1026.00,94.90
1025.00,94.93
1024.00,94.96
1023.00,94.98
1022.00,95.01
1021.00,95.03
1020.00,95.05
1019.00,95.07
1018.00,95.09
1017.00,95.11
1016.00,95.12
1015.00,95.14
1014.00,95.15
1013.00,95.15
1012.00,95.14
1011.00,95.11
1010.00,95.06
1009.00,94.97
1008.00,94.83
1007.00,94.65
1006.00,94.42
1005.00,94.13
1004.00,93.79
1003.00,93.41
1002.00,92.99
1001.00,92.55
1000.00,92.09
999.00,91.62
998.00,91.16
997.00,90.71
996.00,90.28
995.00,89.88
994.00,89.51
993.00,89.18
992.00,88.89
991.00,88.65
990.00,88.47
989.00,88.33
988.00,88.24
987.00,88.19
986.00,88.19
985.00,88.23
984.00,88.31
983.00,88.44
982.00,88.60
981.00,88.77
980.00,88.95
979.00,89.14
978.00,89.31
977.00,89.45
976.00,89.57
975.00,89.65
974.00,89.70
973.00,89.70
972.00,89.67
971.00,89.60
970.00,89.51
969.00,89.41
968.00,89.32
967.00,89.26
966.00,89.22
965.00,89.22
964.00,89.24
963.00,89.29
962.00,89.36
961.00,89.46
960.00,89.58
959.00,89.71
958.00,89.84
957.00,89.99
956.00,90.14
955.00,90.29
954.00,90.44
953.00,90.59
952.00,90.73
951.00,90.87
950.00,91.01
949.00,91.14
948.00,91.26
947.00,91.37
946.00,91.48
945.00,91.59
944.00,91.70
943.00,91.81
942.00,91.92
941.00,92.02
940.00,92.11
939.00,92.21
938.00,92.29
937.00,92.37
936.00,92.44
935.00,92.51
934.00,92.58
933.00,92.63
932.00,92.67
931.00,92.70
930.00,92.73
929.00,92.78
928.00,92.83
927.00,92.89
926.00,92.94
925.00,92.97
924.00,92.99
923.00,93.00
922.00,92.99
921.00,92.99
920.00,92.97
919.00,92.95
918.00,92.92
917.00,92.89
916.00,92.85
915.00,92.81
914.00,92.78
913.00,92.77
912.00,92.77
911.00,92.79
910.00,92.83
909.00,92.88
908.00,92.94
907.00,93.00
906.00,93.08
905.00,93.15
904.00,93.23
903.00,93.32
902.00,93.40
901.00,93.48
900.00,93.56
899.00,93.63
898.00,93.71
897.00,93.78
896.00,93.84
895.00,93.90
894.00,93.95
893.00,94.02
892.00,94.09
891.00,94.15
890.00,94.21
889.00,94.26
888.00,94.30
887.00,94.34
886.00,94.38
885.00,94.42
884.00,94.44
883.00,94.45
882.00,94.46
881.00,94.47
880.00,94.47
879.00,94.47
878.00,94.48
877.00,94.49
876.00,94.50
875.00,94.50
874.00,94.49
873.00,94.48
872.00,94.46
871.00,94.46
870.00,94.44
869.00,94.41
868.00,94.37
867.00,94.32
866.00,94.28
865.00,94.23
864.00,94.17
863.00,94.10
862.00,94.03
861.00,93.96
860.00,93.89
859.00,93.81
858.00,93.72
857.00,93.62
856.00,93.50
855.00,93.38
854.00,93.25
853.00,93.11
852.00,92.96
851.00,92.77
850.00,92.56
849.00,92.33
848.00,92.06
847.00,91.78
846.00,91.49
845.00,91.20
844.00,90.92
843.00,90.66
842.00,90.45
841.00,90.33
840.00,90.29
839.00,90.37
838.00,90.58
837.00,90.90
836.00,91.29
835.00,91.71
834.00,92.10
833.00,92.43
832.00,92.65
831.00,92.76
830.00,92.76
829.00,92.68
828.00,92.57
827.00,92.46
826.00,92.42
825.00,92.44
824.00,92.53
823.00,92.66
822.00,92.80
821.00,92.94
820.00,93.06
819.00,93.14
818.00,93.19
817.00,93.19
816.00,93.15
815.00,93.07
814.00,92.97
813.00,92.88
812.00,92.80
811.00,92.75
810.00,92.74
809.00,92.76
808.00,92.81
807.00,92.90
806.00,93.00
805.00,93.12
804.00,93.23
803.00,93.34
802.00,93.45
801.00,93.55
800.00,93.65
799.00,93.76
798.00,93.86
797.00,93.94
796.00,94.01
795.00,94.06
794.00,94.10
793.00,94.15
792.00,94.20
791.00,94.25
790.00,94.31
789.00,94.35
788.00,94.38
787.00,94.39
786.00,94.40
785.00,94.41
784.00,94.41
783.00,94.40
782.00,94.38
781.00,94.36
780.00,94.33
779.00,94.29
778.00,94.25
777.00,94.21
776.00,94.15
775.00,94.07
774.00,93.98
773.00,93.86
772.00,93.73
771.00,93.59
770.00,93.43
769.00,93.25
768.00,93.06
767.00,92.84
766.00,92.61
765.00,92.36
764.00,92.08
763.00,91.78
762.00,91.48
761.00,91.17
760.00,90.85
759.00,90.54
758.00,90.23
757.00,89.90
756.00,89.56
755.00,89.20
754.00,88.85
753.00,88.52
752.00,88.24
751.00,88.06
750.00,88.01
749.00,88.16
748.00,88.51
747.00,89.05
746.00,89.71
745.00,90.41
744.00,91.07
743.00,91.63
742.00,92.08
741.00,92.42
740.00,92.68
739.00,92.87
738.00,93.03
737.00,93.17
736.00,93.29
735.00,93.39
734.00,93.49
733.00,93.59
732.00,93.69
731.00,93.79
730.00,93.88
729.00,93.98
728.00,94.08
727.00,94.19
726.00,94.29
725.00,94.37
724.00,94.42
723.00,94.46
722.00,94.51
721.00,94.55
720.00,94.59
719.00,94.62
718.00,94.63
717.00,94.63
716.00,94.63
715.00,94.59
714.00,94.53
713.00,94.42
712.00,94.28
711.00,94.11
710.00,93.91
709.00,93.66
708.00,93.38
707.00,93.05
706.00,92.73
705.00,92.44
704.00,92.22
703.00,92.09
702.00,92.05
701.00,92.09
700.00,92.18
699.00,92.34
698.00,92.56
697.00,92.83
696.00,93.13
695.00,93.44
694.00,93.72
693.00,93.95
692.00,94.12
691.00,94.26
690.00,94.36
689.00,94.43
688.00,94.47
687.00,94.51
686.00,94.55
685.00,94.58
684.00,94.59
683.00,94.58
682.00,94.55
681.00,94.52
680.00,94.52
679.00,94.53
678.00,94.54
677.00,94.54
676.00,94.54
675.00,94.54
674.00,94.55
673.00,94.55
672.00,94.56
671.00,94.58
670.00,94.60
669.00,94.58
668.00,94.50
667.00,94.41
666.00,94.37
665.00,94.36
664.00,94.36
663.00,94.35
662.00,94.35
661.00,94.35
660.00,94.35
659.00,94.33
658.00,94.31
657.00,94.30
656.00,94.31
655.00,94.34
654.00,94.36
653.00,94.39
652.00,94.40
651.00,94.40
650.00,94.38
