Created as New Dataset,PMMA (GF)
cm-1,%T
4000.00,99.90
3999.00,99.90
3998.00,99.90
3997.00,99.91
3996.00,99.90
3995.00,99.90
3994.00,99.91
3993.00,99.91
3992.00,99.91
3991.00,99.91
3990.00,99.91
3989.00,99.90
3988.00,99.90
3987.00,99.90
3986.00,99.90
3985.00,99.90
3984.00,99.91
3983.00,99.91
3982.00,99.92
3981.00,99.92
3980.00,99.92
3979.00,99.92
3978.00,99.92
3977.00,99.92
3976.00,99.92
3975.00,99.92
3974.00,99.91
3973.00,99.91
3972.00,99.91
3971.00,99.91
3970.00,99.91
3969.00,99.92
3968.00,99.92
3967.00,99.92
3966.00,99.92
3965.00,99.92
3964.00,99.92
3963.00,99.92
3962.00,99.92
3961.00,99.92
3960.00,99.92
3959.00,99.92
3958.00,99.92
3957.00,99.92
3956.00,99.92
3955.00,99.92
3954.00,99.92
3953.00,99.91
3952.00,99.91
3951.00,99.90
3950.00,99.89
3949.00,99.89
3948.00,99.88
3947.00,99.88
3946.00,99.89
3945.00,99.89
3944.00,99.89
3943.00,99.90
3942.00,99.90
3941.00,99.90
3940.00,99.90
3939.00,99.90
3938.00,99.90
3937.00,99.90
3936.00,99.90
3935.00,99.90
3934.00,99.90
3933.00,99.90
3932.00,99.90
3931.00,99.90
3930.00,99.90
3929.00,99.90
3928.00,99.90
3927.00,99.90
3926.00,99.90
3925.00,99.90
3924.00,99.90
3923.00,99.91
3922.00,99.91
3921.00,99.91
3920.00,99.91
3919.00,99.92
3918.00,99.92
3917.00,99.92
3916.00,99.92
3915.00,99.92
3914.00,99.92
3913.00,99.91
3912.00,99.91
3911.00,99.91
3910.00,99.92
3909.00,99.92
3908.00,99.92
3907.00,99.91
3906.00,99.91
3905.00,99.90
3904.00,99.89
3903.00,99.89
3902.00,99.89
3901.00,99.89
3900.00,99.90
3899.00,99.90
3898.00,99.90
3897.00,99.90
3896.00,99.90
3895.00,99.90
3894.00,99.90
3893.00,99.90
3892.00,99.90
3891.00,99.90
3890.00,99.91
3889.00,99.90
3888.00,99.90
3887.00,99.90
3886.00,99.91
3885.00,99.91
3884.00,99.90
3883.00,99.90
3882.00,99.90
3881.00,99.90
3880.00,99.91
3879.00,99.91
3878.00,99.91
3877.00,99.90
3876.00,99.91
3875.00,99.91
3874.00,99.91
3873.00,99.91
3872.00,99.90
3871.00,99.90
3870.00,99.90
3869.00,99.90
3868.00,99.90
3867.00,99.90
3866.00,99.90
3865.00,99.90
3864.00,99.91
3863.00,99.91
3862.00,99.91
3861.00,99.91
3860.00,99.91
3859.00,99.91
3858.00,99.91
3857.00,99.90
3856.00,99.90
3855.00,99.90
3854.00,99.90
3853.00,99.89
3852.00,99.89
3851.00,99.89
3850.00,99.90
3849.00,99.90
3848.00,99.90
3847.00,99.91
3846.00,99.91
3845.00,99.91
3844.00,99.91
3843.00,99.91
3842.00,99.90
3841.00,99.90
3840.00,99.89
3839.00,99.88
3838.00,99.88
3837.00,99.88
3836.00,99.88
3835.00,99.88
3834.00,99.88
3833.00,99.88
3832.00,99.89
3831.00,99.89
3830.00,99.89
3829.00,99.89
3828.00,99.89
3827.00,99.89
3826.00,99.89
3825.00,99.89
3824.00,99.88
3823.00,99.87
3822.00,99.87
3821.00,99.87
3820.00,99.86
3819.00,99.86
3818.00,99.87
3817.00,99.88
3816.00,99.89
3815.00,99.89
3814.00,99.89
3813.00,99.89
3812.00,99.89
3811.00,99.89
3810.00,99.90
3809.00,99.90
3808.00,99.90
3807.00,99.89
3806.00,99.89
3805.00,99.88
3804.00,99.88
3803.00,99.87
3802.00,99.88
3801.00,99.88
3800.00,99.88
3799.00,99.88
3798.00,99.89
3797.00,99.89
3796.00,99.90
3795.00,99.90
3794.00,99.90
3793.00,99.90
3792.00,99.90
3791.00,99.90
3790.00,99.90
3789.00,99.90
3788.00,99.90
3787.00,99.90
3786.00,99.90
3785.00,99.90
3784.00,99.90
3783.00,99.90
3782.00,99.89
3781.00,99.89
3780.00,99.89
3779.00,99.89
3778.00,99.89
3777.00,99.89
3776.00,99.90
3775.00,99.90
3774.00,99.89
3773.00,99.89
3772.00,99.89
3771.00,99.88
3770.00,99.88
3769.00,99.88
3768.00,99.88
3767.00,99.88
3766.00,99.88
3765.00,99.88
3764.00,99.88
3763.00,99.88
3762.00,99.88
3761.00,99.88
3760.00,99.88
3759.00,99.87
3758.00,99.87
3757.00,99.87
3756.00,99.87
3755.00,99.86
3754.00,99.86
3753.00,99.86
3752.00,99.86
3751.00,99.86
3750.00,99.85
3749.00,99.85
3748.00,99.84
3747.00,99.83
3746.00,99.83
3745.00,99.84
3744.00,99.85
3743.00,99.85
3742.00,99.86
3741.00,99.86
3740.00,99.86
3739.00,99.86
3738.00,99.86
3737.00,99.86
3736.00,99.86
3735.00,99.86
3734.00,99.86
3733.00,99.86
3732.00,99.86
3731.00,99.86
3730.00,99.86
3729.00,99.87
3728.00,99.87
3727.00,99.87
3726.00,99.88
3725.00,99.87
3724.00,99.87
3723.00,99.87
3722.00,99.87
3721.00,99.86
3720.00,99.86
3719.00,99.87
3718.00,99.87
3717.00,99.87
3716.00,99.87
3715.00,99.86
3714.00,99.86
3713.00,99.85
3712.00,99.84
3711.00,99.84
3710.00,99.84
3709.00,99.84
3708.00,99.84
3707.00,99.85
3706.00,99.85
3705.00,99.84
3704.00,99.84
3703.00,99.83
3702.00,99.82
3701.00,99.81
3700.00,99.81
3699.00,99.80
3698.00,99.80
3697.00,99.79
3696.00,99.78
3695.00,99.76
3694.00,99.75
3693.00,99.73
3692.00,99.71
3691.00,99.69
3690.00,99.68
3689.00,99.66
3688.00,99.65
3687.00,99.64
3686.00,99.63
3685.00,99.63
3684.00,99.62
3683.00,99.61
3682.00,99.60
3681.00,99.58
3680.00,99.57
3679.00,99.55
3678.00,99.52
3677.00,99.49
3676.00,99.47
3675.00,99.45
3674.00,99.44
3673.00,99.43
3672.00,99.41
3671.00,99.40
3670.00,99.38
3669.00,99.37
3668.00,99.35
3667.00,99.34
3666.00,99.32
3665.00,99.31
3664.00,99.30
3663.00,99.28
3662.00,99.26
3661.00,99.25
3660.00,99.23
3659.00,99.21
3658.00,99.19
3657.00,99.16
3656.00,99.14
3655.00,99.12
3654.00,99.11
3653.00,99.09
3652.00,99.06
3651.00,99.03
3650.00,99.00
3649.00,98.97
3648.00,98.95
3647.00,98.94
3646.00,98.93
3645.00,98.92
3644.00,98.91
3643.00,98.90
3642.00,98.89
3641.00,98.88
3640.00,98.87
3639.00,98.85
3638.00,98.84
3637.00,98.83
3636.00,98.81
3635.00,98.80
3634.00,98.79
3633.00,98.78
3632.00,98.77
3631.00,98.75
3630.00,98.74
3629.00,98.74
3628.00,98.73
3627.00,98.74
3626.00,98.74
3625.00,98.74
3624.00,98.75
3623.00,98.75
3622.00,98.75
3621.00,98.75
3620.00,98.75
3619.00,98.75
3618.00,98.76
3617.00,98.76
3616.00,98.77
3615.00,98.78
3614.00,98.79
3613.00,98.80
3612.00,98.81
3611.00,98.82
3610.00,98.83
3609.00,98.84
3608.00,98.86
3607.00,98.88
3606.00,98.89
3605.00,98.90
3604.00,98.91
3603.00,98.92
3602.00,98.94
3601.00,98.95
3600.00,98.96
3599.00,98.96
3598.00,98.97
3597.00,98.98
3596.00,98.99
3595.00,99.00
3594.00,99.01
3593.00,99.02
3592.00,99.02
3591.00,99.02
3590.00,99.03
3589.00,99.03
3588.00,99.03
3587.00,99.03
3586.00,99.03
3585.00,99.04
3584.00,99.05
3583.00,99.06
3582.00,99.06
3581.00,99.06
3580.00,99.06
3579.00,99.05
3578.00,99.05
3577.00,99.04
3576.00,99.04
3575.00,99.03
3574.00,99.01
3573.00,99.00
3572.00,98.99
3571.00,98.98
3570.00,98.97
3569.00,98.96
3568.00,98.95
3567.00,98.94
3566.00,98.93
3565.00,98.93
3564.00,98.92
3563.00,98.91
3562.00,98.90
3561.00,98.89
3560.00,98.89
3559.00,98.89
3558.00,98.88
3557.00,98.88
3556.00,98.88
3555.00,98.88
3554.00,98.88
3553.00,98.88
3552.00,98.87
3551.00,98.87
3550.00,98.88
3549.00,98.88
3548.00,98.89
3547.00,98.89
3546.00,98.90
3545.00,98.91
3544.00,98.93
3543.00,98.94
3542.00,98.96
3541.00,98.97
3540.00,98.98
3539.00,98.98
3538.00,98.99
3537.00,99.00
3536.00,99.01
3535.00,99.03
3534.00,99.04
3533.00,99.05
3532.00,99.06
3531.00,99.06
3530.00,99.07
3529.00,99.08
3528.00,99.09
3527.00,99.10
3526.00,99.11
3525.00,99.12
3524.00,99.13
3523.00,99.14
3522.00,99.15
3521.00,99.16
3520.00,99.17
3519.00,99.18
3518.00,99.19
3517.00,99.19
3516.00,99.20
3515.00,99.20
3514.00,99.20
3513.00,99.21
3512.00,99.21
3511.00,99.21
3510.00,99.22
3509.00,99.22
3508.00,99.22
3507.00,99.23
3506.00,99.23
3505.00,99.24
3504.00,99.24
3503.00,99.25
3502.00,99.25
3501.00,99.25
3500.00,99.25
3499.00,99.25
3498.00,99.25
3497.00,99.25
3496.00,99.25
3495.00,99.25
3494.00,99.25
3493.00,99.25
3492.00,99.25
3491.00,99.25
3490.00,99.25
3489.00,99.25
3488.00,99.25
3487.00,99.25
3486.00,99.24
3485.00,99.24
3484.00,99.24
3483.00,99.24
3482.00,99.24
3481.00,99.24
3480.00,99.24
3479.00,99.23
3478.00,99.22
3477.00,99.21
3476.00,99.20
3475.00,99.20
3474.00,99.20
3473.00,99.20
3472.00,99.21
3471.00,99.21
3470.00,99.22
3469.00,99.22
3468.00,99.20
3467.00,99.18
3466.00,99.16
3465.00,99.13
3464.00,99.11
3463.00,99.10
3462.00,99.09
3461.00,99.08
3460.00,99.07
3459.00,99.05
3458.00,99.03
3457.00,99.01
3456.00,98.99
3455.00,98.98
3454.00,98.96
3453.00,98.95
3452.00,98.93
3451.00,98.92
3450.00,98.91
3449.00,98.90
3448.00,98.88
3447.00,98.87
3446.00,98.86
3445.00,98.85
3444.00,98.84
3443.00,98.84
3442.00,98.84
3441.00,98.85
3440.00,98.87
3439.00,98.89
3438.00,98.91
3437.00,98.93
3436.00,98.94
3435.00,98.94
3434.00,98.95
3433.00,98.95
3432.00,98.96
3431.00,98.98
3430.00,99.00
3429.00,99.02
3428.00,99.03
3427.00,99.04
3426.00,99.06
3425.00,99.08
3424.00,99.09
3423.00,99.11
3422.00,99.14
3421.00,99.16
3420.00,99.17
3419.00,99.19
3418.00,99.21
3417.00,99.24
3416.00,99.26
3415.00,99.28
3414.00,99.30
3413.00,99.31
3412.00,99.32
3411.00,99.33
3410.00,99.34
3409.00,99.35
3408.00,99.35
3407.00,99.36
3406.00,99.37
3405.00,99.38
3404.00,99.39
3403.00,99.40
3402.00,99.41
3401.00,99.42
3400.00,99.42
3399.00,99.42
3398.00,99.42
3397.00,99.43
3396.00,99.44
3395.00,99.44
3394.00,99.45
3393.00,99.46
3392.00,99.46
3391.00,99.46
3390.00,99.46
3389.00,99.45
3388.00,99.45
3387.00,99.45
3386.00,99.45
3385.00,99.45
3384.00,99.45
3383.00,99.46
3382.00,99.46
3381.00,99.47
3380.00,99.47
3379.00,99.48
3378.00,99.48
3377.00,99.49
3376.00,99.49
3375.00,99.49
3374.00,99.49
3373.00,99.49
3372.00,99.49
3371.00,99.49
3370.00,99.49
3369.00,99.49
3368.00,99.49
3367.00,99.49
3366.00,99.49
3365.00,99.49
3364.00,99.49
3363.00,99.50
3362.00,99.50
3361.00,99.50
3360.00,99.50
3359.00,99.50
3358.00,99.51
3357.00,99.51
3356.00,99.52
3355.00,99.52
3354.00,99.52
3353.00,99.52
3352.00,99.52
3351.00,99.52
3350.00,99.52
3349.00,99.53
3348.00,99.53
3347.00,99.53
3346.00,99.53
3345.00,99.53
3344.00,99.53
3343.00,99.53
3342.00,99.53
3341.00,99.53
3340.00,99.53
3339.00,99.53
3338.00,99.53
3337.00,99.54
3336.00,99.54
3335.00,99.54
3334.00,99.54
3333.00,99.54
3332.00,99.53
3331.00,99.53
3330.00,99.53
3329.00,99.53
3328.00,99.54
3327.00,99.54
3326.00,99.54
3325.00,99.54
3324.00,99.54
3323.00,99.54
3322.00,99.54
3321.00,99.54
3320.00,99.55
3319.00,99.55
3318.00,99.55
3317.00,99.55
3316.00,99.55
3315.00,99.56
3314.00,99.56
3313.00,99.56
3312.00,99.56
3311.00,99.56
3310.00,99.56
3309.00,99.56
3308.00,99.56
3307.00,99.56
3306.00,99.56
3305.00,99.56
3304.00,99.56
3303.00,99.56
3302.00,99.56
3301.00,99.56
3300.00,99.56
3299.00,99.56
3298.00,99.56
3297.00,99.57
3296.00,99.57
3295.00,99.58
3294.00,99.58
3293.00,99.58
3292.00,99.58
3291.00,99.57
3290.00,99.57
3289.00,99.57
3288.00,99.57
3287.00,99.57
3286.00,99.58
3285.00,99.58
3284.00,99.58
3283.00,99.58
3282.00,99.58
3281.00,99.58
3280.00,99.58
3279.00,99.58
3278.00,99.58
3277.00,99.58
3276.00,99.58
3275.00,99.58
3274.00,99.58
3273.00,99.59
3272.00,99.59
3271.00,99.59
3270.00,99.59
3269.00,99.59
3268.00,99.58
3267.00,99.58
3266.00,99.57
3265.00,99.57
3264.00,99.57
3263.00,99.57
3262.00,99.58
3261.00,99.58
3260.00,99.58
3259.00,99.58
3258.00,99.58
3257.00,99.59
3256.00,99.59
3255.00,99.59
3254.00,99.59
3253.00,99.59
3252.00,99.59
3251.00,99.59
3250.00,99.58
3249.00,99.59
3248.00,99.59
3247.00,99.59
3246.00,99.59
3245.00,99.59
3244.00,99.59
3243.00,99.59
3242.00,99.59
3241.00,99.59
3240.00,99.59
3239.00,99.59
3238.00,99.59
3237.00,99.59
3236.00,99.59
3235.00,99.59
3234.00,99.59
3233.00,99.59
3232.00,99.58
3231.00,99.58
3230.00,99.58
3229.00,99.59
3228.00,99.59
3227.00,99.60
3226.00,99.59
3225.00,99.59
3224.00,99.59
3223.00,99.59
3222.00,99.59
3221.00,99.59
3220.00,99.59
3219.00,99.59
3218.00,99.59
3217.00,99.58
3216.00,99.58
3215.00,99.58
3214.00,99.58
3213.00,99.58
3212.00,99.59
3211.00,99.59
3210.00,99.59
3209.00,99.59
3208.00,99.59
3207.00,99.59
3206.00,99.59
3205.00,99.60
3204.00,99.60
3203.00,99.59
3202.00,99.59
3201.00,99.59
3200.00,99.59
3199.00,99.59
3198.00,99.59
3197.00,99.59
3196.00,99.59
3195.00,99.59
3194.00,99.59
3193.00,99.59
3192.00,99.59
3191.00,99.59
3190.00,99.59
3189.00,99.59
3188.00,99.58
3187.00,99.59
3186.00,99.59
3185.00,99.59
3184.00,99.59
3183.00,99.59
3182.00,99.59
3181.00,99.59
3180.00,99.58
3179.00,99.57
3178.00,99.57
3177.00,99.57
3176.00,99.57
3175.00,99.57
3174.00,99.57
3173.00,99.57
3172.00,99.57
3171.00,99.57
3170.00,99.57
3169.00,99.56
3168.00,99.56
3167.00,99.56
3166.00,99.56
3165.00,99.56
3164.00,99.56
3163.00,99.56
3162.00,99.56
3161.00,99.56
3160.00,99.56
3159.00,99.56
3158.00,99.56
3157.00,99.56
3156.00,99.56
3155.00,99.56
3154.00,99.56
3153.00,99.56
3152.00,99.56
3151.00,99.56
3150.00,99.56
3149.00,99.56
3148.00,99.55
3147.00,99.55
3146.00,99.56
3145.00,99.56
3144.00,99.56
3143.00,99.57
3142.00,99.57
3141.00,99.56
3140.00,99.56
3139.00,99.56
3138.00,99.56
3137.00,99.56
3136.00,99.56
3135.00,99.56
3134.00,99.56
3133.00,99.55
3132.00,99.55
3131.00,99.54
3130.00,99.54
3129.00,99.54
3128.00,99.54
3127.00,99.54
3126.00,99.53
3125.00,99.53
3124.00,99.53
3123.00,99.53
3122.00,99.53
3121.00,99.53
3120.00,99.53
3119.00,99.52
3118.00,99.52
3117.00,99.51
3116.00,99.51
3115.00,99.51
3114.00,99.51
3113.00,99.51
3112.00,99.51
3111.00,99.50
3110.00,99.50
3109.00,99.50
3108.00,99.49
3107.00,99.48
3106.00,99.47
3105.00,99.47
3104.00,99.47
3103.00,99.47
3102.00,99.47
3101.00,99.47
3100.00,99.47
3099.00,99.46
3098.00,99.46
3097.00,99.46
3096.00,99.45
3095.00,99.45
3094.00,99.45
3093.00,99.44
3092.00,99.44
3091.00,99.43
3090.00,99.43
3089.00,99.42
3088.00,99.42
3087.00,99.42
3086.00,99.41
3085.00,99.41
3084.00,99.41
3083.00,99.40
3082.00,99.40
3081.00,99.39
3080.00,99.38
3079.00,99.38
3078.00,99.37
3077.00,99.36
3076.00,99.35
3075.00,99.35
3074.00,99.34
3073.00,99.33
3072.00,99.32
3071.00,99.31
3070.00,99.29
3069.00,99.28
3068.00,99.27
3067.00,99.25
3066.00,99.23
3065.00,99.21
3064.00,99.20
3063.00,99.18
3062.00,99.16
3061.00,99.14
3060.00,99.12
3059.00,99.09
3058.00,99.06
3057.00,99.02
3056.00,98.99
3055.00,98.96
3054.00,98.92
3053.00,98.88
3052.00,98.83
3051.00,98.78
3050.00,98.73
3049.00,98.67
3048.00,98.60
3047.00,98.54
3046.00,98.47
3045.00,98.39
3044.00,98.31
3043.00,98.22
3042.00,98.13
3041.00,98.03
3040.00,97.93
3039.00,97.82
3038.00,97.72
3037.00,97.60
3036.00,97.48
3035.00,97.35
3034.00,97.22
3033.00,97.08
3032.00,96.94
3031.00,96.80
3030.00,96.65
3029.00,96.50
3028.00,96.35
3027.00,96.19
3026.00,96.02
3025.00,95.86
3024.00,95.70
3023.00,95.53
3022.00,95.36
3021.00,95.18
3020.00,95.00
3019.00,94.82
3018.00,94.64
3017.00,94.44
3016.00,94.24
3015.00,94.04
3014.00,93.83
3013.00,93.60
3012.00,93.37
3011.00,93.12
3010.00,92.87
3009.00,92.62
3008.00,92.37
3007.00,92.11
3006.00,91.85
3005.00,91.59
3004.00,91.35
3003.00,91.12
3002.00,90.90
3001.00,90.71
3000.00,90.54
2999.00,90.39
2998.00,90.27
2997.00,90.18
2996.00,90.12
2995.00,90.09
2994.00,90.11
2993.00,90.16
2992.00,90.24
2991.00,90.37
2990.00,90.53
2989.00,90.73
2988.00,90.97
2987.00,91.23
2986.00,91.52
2985.00,91.82
2984.00,92.13
2983.00,92.45
2982.00,92.75
2981.00,93.04
2980.00,93.30
2979.00,93.52
2978.00,93.71
2977.00,93.84
2976.00,93.92
2975.00,93.95
2974.00,93.93
2973.00,93.85
2972.00,93.72
2971.00,93.53
2970.00,93.30
2969.00,93.02
2968.00,92.70
2967.00,92.34
2966.00,91.94
2965.00,91.50
2964.00,91.02
2963.00,90.50
2962.00,89.94
2961.00,89.35
2960.00,88.74
2959.00,88.10
2958.00,87.45
2957.00,86.81
2956.00,86.19
2955.00,85.62
2954.00,85.13
2953.00,84.74
2952.00,84.49
2951.00,84.40
2950.00,84.48
2949.00,84.73
2948.00,85.14
2947.00,85.68
2946.00,86.29
2945.00,86.93
2944.00,87.55
2943.00,88.12
2942.00,88.60
2941.00,89.01
2940.00,89.33
2939.00,89.58
2938.00,89.77
2937.00,89.92
2936.00,90.04
2935.00,90.13
2934.00,90.21
2933.00,90.27
2932.00,90.34
2931.00,90.40
2930.00,90.45
2929.00,90.50
2928.00,90.55
2927.00,90.59
2926.00,90.62
2925.00,90.64
2924.00,90.66
2923.00,90.66
2922.00,90.67
2921.00,90.67
2920.00,90.70
2919.00,90.76
2918.00,90.86
2917.00,91.03
2916.00,91.27
2915.00,91.58
2914.00,91.92
2913.00,92.27
2912.00,92.61
2911.00,92.91
2910.00,93.18
2909.00,93.42
2908.00,93.63
2907.00,93.81
2906.00,93.99
2905.00,94.16
2904.00,94.31
2903.00,94.46
2902.00,94.60
2901.00,94.73
2900.00,94.86
2899.00,94.98
2898.00,95.09
2897.00,95.19
2896.00,95.29
2895.00,95.37
2894.00,95.45
2893.00,95.53
2892.00,95.60
2891.00,95.67
2890.00,95.75
2889.00,95.82
2888.00,95.91
2887.00,95.99
2886.00,96.08
2885.00,96.17
2884.00,96.26
2883.00,96.36
2882.00,96.46
2881.00,96.56
2880.00,96.65
2879.00,96.74
2878.00,96.83
2877.00,96.91
2876.00,97.00
2875.00,97.08
2874.00,97.16
2873.00,97.25
2872.00,97.33
2871.00,97.41
2870.00,97.48
2869.00,97.54
2868.00,97.60
2867.00,97.63
2866.00,97.66
2865.00,97.67
2864.00,97.68
2863.00,97.67
2862.00,97.65
2861.00,97.62
2860.00,97.58
2859.00,97.51
2858.00,97.43
2857.00,97.32
2856.00,97.19
2855.00,97.02
2854.00,96.82
2853.00,96.61
2852.00,96.39
2851.00,96.22
2850.00,96.11
2849.00,96.11
2848.00,96.19
2847.00,96.32
2846.00,96.47
2845.00,96.62
2844.00,96.76
2843.00,96.88
2842.00,96.99
2841.00,97.11
2840.00,97.23
2839.00,97.36
2838.00,97.49
2837.00,97.63
2836.00,97.76
2835.00,97.90
2834.00,98.02
2833.00,98.14
2832.00,98.25
2831.00,98.35
2830.00,98.44
2829.00,98.52
2828.00,98.60
2827.00,98.67
2826.00,98.73
2825.00,98.79
2824.00,98.84
2823.00,98.89
2822.00,98.93
2821.00,98.98
2820.00,99.02
2819.00,99.06
2818.00,99.09
2817.00,99.13
2816.00,99.16
2815.00,99.19
2814.00,99.21
2813.00,99.24
2812.00,99.26
2811.00,99.28
2810.00,99.30
2809.00,99.32
2808.00,99.34
2807.00,99.35
2806.00,99.37
2805.00,99.38
2804.00,99.39
2803.00,99.40
2802.00,99.41
2801.00,99.42
2800.00,99.43
2799.00,99.44
2798.00,99.45
2797.00,99.45
2796.00,99.46
2795.00,99.46
2794.00,99.47
2793.00,99.47
2792.00,99.48
2791.00,99.48
2790.00,99.48
2789.00,99.49
2788.00,99.49
2787.00,99.49
2786.00,99.49
2785.00,99.49
2784.00,99.49
2783.00,99.49
2782.00,99.49
2781.00,99.49
2780.00,99.49
2779.00,99.50
2778.00,99.50
2777.00,99.51
2776.00,99.51
2775.00,99.52
2774.00,99.52
2773.00,99.52
2772.00,99.52
2771.00,99.52
2770.00,99.52
2769.00,99.53
2768.00,99.53
2767.00,99.53
2766.00,99.53
2765.00,99.54
2764.00,99.54
2763.00,99.55
2762.00,99.56
2761.00,99.56
2760.00,99.57
2759.00,99.57
2758.00,99.57
2757.00,99.58
2756.00,99.58
2755.00,99.58
2754.00,99.58
2753.00,99.59
2752.00,99.59
2751.00,99.59
2750.00,99.60
2749.00,99.60
2748.00,99.60
2747.00,99.60
2746.00,99.60
2745.00,99.60
2744.00,99.61
2743.00,99.61
2742.00,99.61
2741.00,99.62
2740.00,99.62
2739.00,99.63
2738.00,99.63
2737.00,99.64
2736.00,99.64
2735.00,99.65
2734.00,99.66
2733.00,99.66
2732.00,99.67
2731.00,99.67
2730.00,99.68
2729.00,99.68
2728.00,99.68
2727.00,99.68
2726.00,99.69
2725.00,99.69
2724.00,99.69
2723.00,99.69
2722.00,99.69
2721.00,99.69
2720.00,99.70
2719.00,99.70
2718.00,99.70
2717.00,99.71
2716.00,99.71
2715.00,99.71
2714.00,99.71
2713.00,99.71
2712.00,99.71
2711.00,99.72
2710.00,99.72
2709.00,99.72
2708.00,99.72
2707.00,99.72
2706.00,99.72
2705.00,99.72
2704.00,99.72
2703.00,99.72
2702.00,99.72
2701.00,99.73
2700.00,99.73
2699.00,99.73
2698.00,99.72
2697.00,99.72
2696.00,99.72
2695.00,99.73
2694.00,99.73
2693.00,99.73
2692.00,99.73
2691.00,99.73
2690.00,99.73
2689.00,99.73
2688.00,99.73
2687.00,99.72
2686.00,99.72
2685.00,99.72
2684.00,99.73
2683.00,99.73
2682.00,99.72
2681.00,99.72
2680.00,99.72
2679.00,99.72
2678.00,99.72
2677.00,99.72
2676.00,99.72
2675.00,99.72
2674.00,99.71
2673.00,99.71
2672.00,99.71
2671.00,99.71
2670.00,99.70
2669.00,99.70
2668.00,99.70
2667.00,99.69
2666.00,99.69
2665.00,99.68
2664.00,99.67
2663.00,99.67
2662.00,99.66
2661.00,99.65
2660.00,99.63
2659.00,99.62
2658.00,99.61
2657.00,99.61
2656.00,99.60
2655.00,99.60
2654.00,99.59
2653.00,99.59
2652.00,99.58
2651.00,99.58
2650.00,99.57
2649.00,99.57
2648.00,99.57
2647.00,99.57
2646.00,99.57
2645.00,99.57
2644.00,99.57
2643.00,99.56
2642.00,99.56
2641.00,99.56
2640.00,99.57
2639.00,99.57
2638.00,99.57
2637.00,99.57
2636.00,99.57
2635.00,99.57
2634.00,99.58
2633.00,99.58
2632.00,99.58
2631.00,99.58
2630.00,99.58
2629.00,99.58
2628.00,99.58
2627.00,99.58
2626.00,99.58
2625.00,99.58
2624.00,99.58
2623.00,99.58
2622.00,99.58
2621.00,99.58
2620.00,99.58
2619.00,99.58
2618.00,99.58
2617.00,99.58
2616.00,99.58
2615.00,99.58
2614.00,99.57
2613.00,99.57
2612.00,99.57
2611.00,99.57
2610.00,99.57
2609.00,99.56
2608.00,99.56
2607.00,99.56
2606.00,99.56
2605.00,99.56
2604.00,99.55
2603.00,99.55
2602.00,99.54
2601.00,99.54
2600.00,99.54
2599.00,99.54
2598.00,99.54
2597.00,99.55
2596.00,99.55
2595.00,99.55
2594.00,99.55
2593.00,99.55
2592.00,99.55
2591.00,99.55
2590.00,99.56
2589.00,99.56
2588.00,99.57
2587.00,99.57
2586.00,99.58
2585.00,99.58
2584.00,99.58
2583.00,99.58
2582.00,99.58
2581.00,99.58
2580.00,99.59
2579.00,99.60
2578.00,99.60
2577.00,99.60
2576.00,99.60
2575.00,99.61
2574.00,99.61
2573.00,99.61
2572.00,99.61
2571.00,99.61
2570.00,99.61
2569.00,99.61
2568.00,99.61
2567.00,99.62
2566.00,99.62
2565.00,99.62
2564.00,99.63
2563.00,99.63
2562.00,99.63
2561.00,99.63
2560.00,99.63
2559.00,99.63
2558.00,99.63
2557.00,99.63
2556.00,99.63
2555.00,99.63
2554.00,99.63
2553.00,99.63
2552.00,99.64
2551.00,99.64
2550.00,99.65
2549.00,99.65
2548.00,99.65
2547.00,99.65
2546.00,99.65
2545.00,99.66
2544.00,99.66
2543.00,99.66
2542.00,99.66
2541.00,99.66
2540.00,99.66
2539.00,99.67
2538.00,99.67
2537.00,99.67
2536.00,99.67
2535.00,99.67
2534.00,99.68
2533.00,99.68
2532.00,99.68
2531.00,99.68
2530.00,99.68
2529.00,99.69
2528.00,99.69
2527.00,99.70
2526.00,99.70
2525.00,99.71
2524.00,99.71
2523.00,99.71
2522.00,99.71
2521.00,99.71
2520.00,99.72
2519.00,99.72
2518.00,99.72
2517.00,99.73
2516.00,99.74
2515.00,99.74
2514.00,99.74
2513.00,99.75
2512.00,99.75
2511.00,99.75
2510.00,99.75
2509.00,99.75
2508.00,99.75
2507.00,99.75
2506.00,99.74
2505.00,99.74
2504.00,99.75
2503.00,99.75
2502.00,99.75
2501.00,99.75
2500.00,99.75
2499.00,99.75
2498.00,99.75
2497.00,99.75
2496.00,99.75
2495.00,99.76
2494.00,99.76
2493.00,99.76
2492.00,99.76
2491.00,99.76
2490.00,99.77
2489.00,99.77
2488.00,99.77
2487.00,99.77
2486.00,99.76
2485.00,99.75
2484.00,99.75
2483.00,99.75
2482.00,99.75
2481.00,99.75
2480.00,99.76
2479.00,99.76
2478.00,99.77
2477.00,99.77
2476.00,99.77
2475.00,99.77
2474.00,99.77
2473.00,99.76
2472.00,99.76
2471.00,99.75
2470.00,99.75
2469.00,99.75
2468.00,99.75
2467.00,99.75
2466.00,99.75
2465.00,99.74
2464.00,99.74
2463.00,99.73
2462.00,99.73
2461.00,99.73
2460.00,99.72
2459.00,99.72
2458.00,99.71
2457.00,99.71
2456.00,99.71
2455.00,99.71
2454.00,99.70
2453.00,99.70
2452.00,99.69
2451.00,99.69
2450.00,99.69
2449.00,99.69
2448.00,99.69
2447.00,99.69
2446.00,99.69
2445.00,99.69
2444.00,99.69
2443.00,99.69
2442.00,99.69
2441.00,99.69
2440.00,99.69
2439.00,99.68
2438.00,99.68
2437.00,99.67
2436.00,99.68
2435.00,99.68
2434.00,99.68
2433.00,99.68
2432.00,99.67
2431.00,99.67
2430.00,99.66
2429.00,99.66
2428.00,99.65
2427.00,99.64
2426.00,99.64
2425.00,99.64
2424.00,99.64
2423.00,99.64
2422.00,99.64
2421.00,99.65
2420.00,99.65
2419.00,99.65
2418.00,99.65
2417.00,99.64
2416.00,99.64
2415.00,99.64
2414.00,99.64
2413.00,99.64
2412.00,99.64
2411.00,99.64
2410.00,99.64
2409.00,99.65
2408.00,99.65
2407.00,99.66
2406.00,99.67
2405.00,99.67
2404.00,99.68
2403.00,99.68
2402.00,99.68
2401.00,99.69
2400.00,99.69
2399.00,99.69
2398.00,99.69
2397.00,99.70
2396.00,99.70
2395.00,99.71
2394.00,99.71
2393.00,99.72
2392.00,99.72
2391.00,99.72
2390.00,99.72
2389.00,99.72
2388.00,99.72
2387.00,99.72
2386.00,99.72
2385.00,99.72
2384.00,99.72
2383.00,99.73
2382.00,99.73
2381.00,99.73
2380.00,99.74
2379.00,99.74
2378.00,99.74
2377.00,99.74
2376.00,99.74
2375.00,99.74
2374.00,99.73
2373.00,99.73
2372.00,99.73
2371.00,99.74
2370.00,99.74
2369.00,99.75
2368.00,99.75
2367.00,99.74
2366.00,99.74
2365.00,99.73
2364.00,99.72
2363.00,99.72
2362.00,99.72
2361.00,99.72
2360.00,99.72
2359.00,99.71
2358.00,99.70
2357.00,99.69
2356.00,99.70
2355.00,99.70
2354.00,99.71
2353.00,99.71
2352.00,99.70
2351.00,99.69
2350.00,99.69
2349.00,99.69
2348.00,99.70
2347.00,99.71
2346.00,99.71
2345.00,99.70
2344.00,99.69
2343.00,99.67
2342.00,99.66
2341.00,99.65
2340.00,99.65
2339.00,99.64
2338.00,99.63
2337.00,99.63
2336.00,99.64
2335.00,99.64
2334.00,99.65
2333.00,99.66
2332.00,99.66
2331.00,99.65
2330.00,99.64
2329.00,99.63
2328.00,99.61
2327.00,99.57
2326.00,99.52
2325.00,99.47
2324.00,99.43
2323.00,99.43
2322.00,99.45
2321.00,99.48
2320.00,99.51
2319.00,99.52
2318.00,99.53
2317.00,99.55
2316.00,99.55
2315.00,99.56
2314.00,99.56
2313.00,99.57
2312.00,99.57
2311.00,99.57
2310.00,99.57
2309.00,99.58
2308.00,99.58
2307.00,99.58
2306.00,99.58
2305.00,99.59
2304.00,99.59
2303.00,99.60
2302.00,99.60
2301.00,99.60
2300.00,99.59
2299.00,99.58
2298.00,99.57
2297.00,99.57
2296.00,99.57
2295.00,99.57
2294.00,99.56
2293.00,99.55
2292.00,99.54
2291.00,99.53
2290.00,99.52
2289.00,99.50
2288.00,99.49
2287.00,99.49
2286.00,99.48
2285.00,99.48
2284.00,99.49
2283.00,99.50
2282.00,99.51
2281.00,99.53
2280.00,99.54
2279.00,99.55
2278.00,99.55
2277.00,99.56
2276.00,99.56
2275.00,99.57
2274.00,99.58
2273.00,99.59
2272.00,99.60
2271.00,99.60
2270.00,99.60
2269.00,99.60
2268.00,99.61
2267.00,99.62
2266.00,99.62
2265.00,99.62
2264.00,99.62
2263.00,99.62
2262.00,99.62
2261.00,99.62
2260.00,99.62
2259.00,99.62
2258.00,99.62
2257.00,99.62
2256.00,99.63
2255.00,99.64
2254.00,99.65
2253.00,99.65
2252.00,99.66
2251.00,99.66
2250.00,99.67
2249.00,99.67
2248.00,99.67
2247.00,99.66
2246.00,99.64
2245.00,99.63
2244.00,99.63
2243.00,99.63
2242.00,99.64
2241.00,99.64
2240.00,99.64
2239.00,99.64
2238.00,99.63
2237.00,99.62
2236.00,99.62
2235.00,99.61
2234.00,99.61
2233.00,99.61
2232.00,99.61
2231.00,99.61
2230.00,99.61
2229.00,99.62
2228.00,99.63
2227.00,99.63
2226.00,99.63
2225.00,99.63
2224.00,99.63
2223.00,99.62
2222.00,99.62
2221.00,99.61
2220.00,99.60
2219.00,99.59
2218.00,99.59
2217.00,99.59
2216.00,99.59
2215.00,99.59
2214.00,99.59
2213.00,99.59
2212.00,99.58
2211.00,99.57
2210.00,99.55
2209.00,99.54
2208.00,99.54
2207.00,99.55
2206.00,99.55
2205.00,99.56
2204.00,99.57
2203.00,99.57
2202.00,99.56
2201.00,99.56
2200.00,99.55
2199.00,99.54
2198.00,99.53
2197.00,99.51
2196.00,99.50
2195.00,99.49
2194.00,99.49
2193.00,99.50
2192.00,99.50
2191.00,99.49
2190.00,99.48
2189.00,99.47
2188.00,99.46
2187.00,99.45
2186.00,99.45
2185.00,99.46
2184.00,99.47
2183.00,99.50
2182.00,99.53
2181.00,99.56
2180.00,99.57
2179.00,99.55
2178.00,99.52
2177.00,99.52
2176.00,99.53
2175.00,99.55
2174.00,99.55
2173.00,99.54
2172.00,99.51
2171.00,99.46
2170.00,99.41
2169.00,99.37
2168.00,99.33
2167.00,99.30
2166.00,99.28
2165.00,99.26
2164.00,99.24
2163.00,99.21
2162.00,99.18
2161.00,99.22
2160.00,99.34
2159.00,99.53
2158.00,99.72
2157.00,99.85
2156.00,99.89
2155.00,99.86
2154.00,99.82
2153.00,99.79
2152.00,99.75
2151.00,99.71
2150.00,99.68
2149.00,99.66
2148.00,99.66
2147.00,99.66
2146.00,99.66
2145.00,99.67
2144.00,99.68
2143.00,99.68
2142.00,99.68
2141.00,99.68
2140.00,99.68
2139.00,99.67
2138.00,99.67
2137.00,99.67
2136.00,99.69
2135.00,99.72
2134.00,99.75
2133.00,99.77
2132.00,99.77
2131.00,99.75
2130.00,99.72
2129.00,99.69
2128.00,99.66
2127.00,99.64
2126.00,99.61
2125.00,99.60
2124.00,99.59
2123.00,99.58
2122.00,99.56
2121.00,99.55
2120.00,99.54
2119.00,99.52
2118.00,99.51
2117.00,99.50
2116.00,99.48
2115.00,99.46
2114.00,99.44
2113.00,99.43
2112.00,99.42
2111.00,99.42
2110.00,99.41
2109.00,99.42
2108.00,99.41
2107.00,99.40
2106.00,99.38
2105.00,99.38
2104.00,99.39
2103.00,99.39
2102.00,99.39
2101.00,99.38
2100.00,99.37
2099.00,99.35
2098.00,99.34
2097.00,99.35
2096.00,99.38
2095.00,99.41
2094.00,99.43
2093.00,99.43
2092.00,99.42
2091.00,99.39
2090.00,99.36
2089.00,99.34
2088.00,99.33
2087.00,99.32
2086.00,99.31
2085.00,99.30
2084.00,99.28
2083.00,99.27
2082.00,99.25
2081.00,99.24
2080.00,99.24
2079.00,99.22
2078.00,99.21
2077.00,99.21
2076.00,99.22
2075.00,99.22
2074.00,99.22
2073.00,99.22
2072.00,99.22
2071.00,99.22
2070.00,99.22
2069.00,99.22
2068.00,99.22
2067.00,99.21
2066.00,99.20
2065.00,99.19
2064.00,99.19
2063.00,99.19
2062.00,99.18
2061.00,99.18
2060.00,99.17
2059.00,99.15
2058.00,99.12
2057.00,99.10
2056.00,99.09
2055.00,99.08
2054.00,99.07
2053.00,99.04
2052.00,98.99
2051.00,98.94
2050.00,98.92
2049.00,98.95
2048.00,99.00
2047.00,99.03
2046.00,99.04
2045.00,99.05
2044.00,99.06
2043.00,99.05
2042.00,99.04
2041.00,99.05
2040.00,99.06
2039.00,99.05
2038.00,99.04
2037.00,99.04
2036.00,99.04
2035.00,99.06
2034.00,99.08
2033.00,99.13
2032.00,99.17
2031.00,99.20
2030.00,99.21
2029.00,99.23
2028.00,99.24
2027.00,99.24
2026.00,99.23
2025.00,99.24
2024.00,99.27
2023.00,99.28
2022.00,99.28
2021.00,99.28
2020.00,99.27
2019.00,99.26
2018.00,99.25
2017.00,99.25
2016.00,99.26
2015.00,99.26
2014.00,99.25
2013.00,99.24
2012.00,99.23
2011.00,99.20
2010.00,99.19
2009.00,99.21
2008.00,99.25
2007.00,99.28
2006.00,99.30
2005.00,99.32
2004.00,99.32
2003.00,99.30
2002.00,99.28
2001.00,99.26
2000.00,99.24
1999.00,99.21
1998.00,99.18
1997.00,99.16
1996.00,99.16
1995.00,99.15
1994.00,99.13
1993.00,99.12
1992.00,99.11
1991.00,99.09
1990.00,99.07
1989.00,99.07
1988.00,99.06
1987.00,99.04
1986.00,99.00
1985.00,98.99
1984.00,98.98
1983.00,98.95
1982.00,98.90
1981.00,98.86
1980.00,98.84
1979.00,98.85
1978.00,98.92
1977.00,99.01
1976.00,99.09
1975.00,99.11
1974.00,99.11
1973.00,99.13
1972.00,99.15
1971.00,99.14
1970.00,99.12
1969.00,99.11
1968.00,99.11
1967.00,99.11
1966.00,99.10
1965.00,99.11
1964.00,99.12
1963.00,99.11
1962.00,99.11
1961.00,99.14
1960.00,99.19
1959.00,99.22
1958.00,99.23
1957.00,99.23
1956.00,99.22
1955.00,99.19
1954.00,99.17
1953.00,99.17
1952.00,99.19
1951.00,99.20
1950.00,99.21
1949.00,99.22
1948.00,99.23
1947.00,99.23
1946.00,99.23
1945.00,99.24
1944.00,99.26
1943.00,99.28
1942.00,99.29
1941.00,99.31
1940.00,99.33
1939.00,99.33
1938.00,99.34
1937.00,99.36
1936.00,99.39
1935.00,99.39
1934.00,99.39
1933.00,99.39
1932.00,99.39
1931.00,99.39
1930.00,99.40
1929.00,99.41
1928.00,99.43
1927.00,99.44
1926.00,99.44
1925.00,99.45
1924.00,99.46
1923.00,99.46
1922.00,99.45
1921.00,99.45
1920.00,99.44
1919.00,99.43
1918.00,99.43
1917.00,99.44
1916.00,99.45
1915.00,99.45
1914.00,99.44
1913.00,99.44
1912.00,99.46
1911.00,99.46
1910.00,99.47
1909.00,99.48
1908.00,99.49
1907.00,99.49
1906.00,99.49
1905.00,99.49
1904.00,99.49
1903.00,99.49
1902.00,99.49
1901.00,99.51
1900.00,99.52
1899.00,99.52
1898.00,99.52
1897.00,99.53
1896.00,99.55
1895.00,99.55
1894.00,99.55
1893.00,99.55
1892.00,99.56
1891.00,99.55
1890.00,99.54
1889.00,99.54
1888.00,99.55
1887.00,99.54
1886.00,99.53
1885.00,99.53
1884.00,99.54
1883.00,99.54
1882.00,99.53
1881.00,99.54
1880.00,99.55
1879.00,99.54
1878.00,99.52
1877.00,99.52
1876.00,99.52
1875.00,99.52
1874.00,99.51
1873.00,99.52
1872.00,99.51
1871.00,99.50
1870.00,99.49
1869.00,99.49
1868.00,99.49
1867.00,99.47
1866.00,99.45
1865.00,99.44
1864.00,99.43
1863.00,99.42
1862.00,99.41
1861.00,99.40
1860.00,99.41
1859.00,99.39
1858.00,99.37
1857.00,99.36
1856.00,99.35
1855.00,99.34
1854.00,99.32
1853.00,99.31
1852.00,99.31
1851.00,99.29
1850.00,99.28
1849.00,99.27
1848.00,99.26
1847.00,99.22
1846.00,99.18
1845.00,99.17
1844.00,99.18
1843.00,99.18
1842.00,99.17
1841.00,99.16
1840.00,99.15
1839.00,99.13
1838.00,99.10
1837.00,99.09
1836.00,99.09
1835.00,99.07
1834.00,99.06
1833.00,99.05
1832.00,99.05
1831.00,99.04
1830.00,99.02
1829.00,99.02
1828.00,99.02
1827.00,98.99
1826.00,98.96
1825.00,98.95
1824.00,98.96
1823.00,98.95
1822.00,98.93
1821.00,98.93
1820.00,98.94
1819.00,98.93
1818.00,98.92
1817.00,98.92
1816.00,98.92
1815.00,98.90
1814.00,98.86
1813.00,98.85
1812.00,98.84
1811.00,98.81
1810.00,98.79
1809.00,98.78
1808.00,98.77
1807.00,98.74
1806.00,98.71
1805.00,98.69
1804.00,98.68
1803.00,98.65
1802.00,98.63
1801.00,98.62
1800.00,98.63
1799.00,98.61
1798.00,98.58
1797.00,98.57
1796.00,98.56
1795.00,98.52
1794.00,98.47
1793.00,98.45
1792.00,98.44
1791.00,98.41
1790.00,98.38
1789.00,98.37
1788.00,98.36
1787.00,98.32
1786.00,98.28
1785.00,98.27
1784.00,98.27
1783.00,98.25
1782.00,98.21
1781.00,98.18
1780.00,98.16
1779.00,98.11
1778.00,98.06
1777.00,98.04
1776.00,98.02
1775.00,97.97
1774.00,97.89
1773.00,97.82
1772.00,97.74
1771.00,97.62
1770.00,97.49
1769.00,97.40
1768.00,97.31
1767.00,97.19
1766.00,97.06
1765.00,96.93
1764.00,96.79
1763.00,96.56
1762.00,96.29
1761.00,96.04
1760.00,95.78
1759.00,95.43
1758.00,94.98
1757.00,94.45
1756.00,93.87
1755.00,93.20
1754.00,92.44
1753.00,91.50
1752.00,90.24
1751.00,88.57
1750.00,86.58
1749.00,84.39
1748.00,82.01
1747.00,79.44
1746.00,76.74
1745.00,73.89
1744.00,70.89
1743.00,67.85
1742.00,64.85
1741.00,61.83
1740.00,58.69
1739.00,55.71
1738.00,53.28
1737.00,51.30
1736.00,49.25
1735.00,46.51
1734.00,43.29
1733.00,40.59
1732.00,38.59
1731.00,36.75
1730.00,34.84
1729.00,33.00
1728.00,31.40
1727.00,30.04
1726.00,28.90
1725.00,28.04
1724.00,27.57
1723.00,27.47
1722.00,27.75
1721.00,28.47
1720.00,29.78
1719.00,31.88
1718.00,34.89
1717.00,38.52
1716.00,42.29
1715.00,46.03
1714.00,49.71
1713.00,53.28
1712.00,56.73
1711.00,60.08
1710.00,63.30
1709.00,66.29
1708.00,69.07
1707.00,71.83
1706.00,74.56
1705.00,76.96
1704.00,78.79
1703.00,80.21
1702.00,81.60
1701.00,83.23
1700.00,84.89
1699.00,86.12
1698.00,86.93
1697.00,87.55
1696.00,88.18
1695.00,88.81
1694.00,89.28
1693.00,89.60
1692.00,89.88
1691.00,90.22
1690.00,90.59
1689.00,90.91
1688.00,91.18
1687.00,91.46
1686.00,91.80
1685.00,92.20
1684.00,92.62
1683.00,93.03
1682.00,93.37
1681.00,93.65
1680.00,93.93
1679.00,94.21
1678.00,94.45
1677.00,94.66
1676.00,94.88
1675.00,95.15
1674.00,95.39
1673.00,95.54
1672.00,95.64
1671.00,95.76
1670.00,95.90
1669.00,96.00
1668.00,96.08
1667.00,96.16
1666.00,96.24
1665.00,96.27
1664.00,96.31
1663.00,96.36
1662.00,96.42
1661.00,96.44
1660.00,96.45
1659.00,96.48
1658.00,96.52
1657.00,96.52
1656.00,96.50
1655.00,96.52
1654.00,96.55
1653.00,96.53
1652.00,96.51
1651.00,96.51
1650.00,96.50
1649.00,96.46
1648.00,96.41
1647.00,96.36
1646.00,96.31
1645.00,96.25
1644.00,96.20
1643.00,96.16
1642.00,96.13
1641.00,96.09
1640.00,96.05
1639.00,96.04
1638.00,96.04
1637.00,96.02
1636.00,95.99
1635.00,96.01
1634.00,96.05
1633.00,96.07
1632.00,96.09
1631.00,96.12
1630.00,96.16
1629.00,96.19
1628.00,96.22
1627.00,96.26
1626.00,96.31
1625.00,96.34
1624.00,96.37
1623.00,96.43
1622.00,96.49
1621.00,96.53
1620.00,96.57
1619.00,96.63
1618.00,96.70
1617.00,96.76
1616.00,96.80
1615.00,96.84
1614.00,96.89
1613.00,96.92
1612.00,96.96
1611.00,97.02
1610.00,97.08
1609.00,97.11
1608.00,97.14
1607.00,97.18
1606.00,97.23
1605.00,97.25
1604.00,97.27
1603.00,97.30
1602.00,97.34
1601.00,97.35
1600.00,97.36
1599.00,97.39
1598.00,97.41
1597.00,97.42
1596.00,97.42
1595.00,97.43
1594.00,97.44
1593.00,97.43
1592.00,97.41
1591.00,97.39
1590.00,97.38
1589.00,97.35
1588.00,97.30
1587.00,97.26
1586.00,97.22
1585.00,97.15
1584.00,97.06
1583.00,96.99
1582.00,96.92
1581.00,96.85
1580.00,96.79
1579.00,96.76
1578.00,96.77
1577.00,96.78
1576.00,96.79
1575.00,96.83
1574.00,96.88
1573.00,96.91
1572.00,96.94
1571.00,97.00
1570.00,97.10
1569.00,97.17
1568.00,97.22
1567.00,97.27
1566.00,97.32
1565.00,97.35
1564.00,97.38
1563.00,97.40
1562.00,97.40
1561.00,97.38
1560.00,97.40
1559.00,97.41
1558.00,97.41
1557.00,97.41
1556.00,97.38
1555.00,97.37
1554.00,97.36
1553.00,97.33
1552.00,97.28
1551.00,97.23
1550.00,97.18
1549.00,97.10
1548.00,97.02
1547.00,96.93
1546.00,96.85
1545.00,96.75
1544.00,96.66
1543.00,96.60
1542.00,96.60
1541.00,96.60
1540.00,96.60
1539.00,96.68
1538.00,96.77
1537.00,96.82
1536.00,96.86
1535.00,96.95
1534.00,97.08
1533.00,97.18
1532.00,97.25
1531.00,97.32
1530.00,97.37
1529.00,97.38
1528.00,97.39
1527.00,97.41
1526.00,97.44
1525.00,97.45
1524.00,97.44
1523.00,97.44
1522.00,97.43
1521.00,97.39
1520.00,97.34
1519.00,97.33
1518.00,97.32
1517.00,97.26
1516.00,97.20
1515.00,97.16
1514.00,97.13
1513.00,97.07
1512.00,97.01
1511.00,96.97
1510.00,96.94
1509.00,96.89
1508.00,96.77
1507.00,96.55
1506.00,96.33
1505.00,96.12
1504.00,95.92
1503.00,95.70
1502.00,95.43
1501.00,95.07
1500.00,94.61
1499.00,94.08
1498.00,93.41
1497.00,92.49
1496.00,91.42
1495.00,90.36
1494.00,89.34
1493.00,88.26
1492.00,87.01
1491.00,85.56
1490.00,83.99
1489.00,82.56
1488.00,81.45
1487.00,80.66
1486.00,80.10
1485.00,79.74
1484.00,79.57
1483.00,79.53
1482.00,79.56
1481.00,79.62
1480.00,79.72
1479.00,79.86
1478.00,80.01
1477.00,80.19
1476.00,80.41
1475.00,80.67
1474.00,80.95
1473.00,81.25
1472.00,81.56
1471.00,81.83
1470.00,81.99
1469.00,82.04
1468.00,81.99
1467.00,81.84
1466.00,81.55
1465.00,81.11
1464.00,80.63
1463.00,80.23
1462.00,79.86
1461.00,79.47
1460.00,79.05
1459.00,78.54
1458.00,77.77
1457.00,76.70
1456.00,75.68
1455.00,74.90
1454.00,74.16
1453.00,73.35
1452.00,72.53
1451.00,71.84
1450.00,71.28
1449.00,70.86
1448.00,70.66
1447.00,70.71
1446.00,70.91
1445.00,71.16
1444.00,71.42
1443.00,71.64
1442.00,71.69
1441.00,71.50
1440.00,71.15
1439.00,70.63
1438.00,69.86
1437.00,68.93
1436.00,68.25
1435.00,68.13
1434.00,68.48
1433.00,69.27
1432.00,70.57
1431.00,72.44
1430.00,74.70
1429.00,77.09
1428.00,79.37
1427.00,81.44
1426.00,83.36
1425.00,85.22
1424.00,86.93
1423.00,88.30
1422.00,89.32
1421.00,90.16
1420.00,90.94
1419.00,91.65
1418.00,92.20
1417.00,92.60
1416.00,92.88
1415.00,93.07
1414.00,93.21
1413.00,93.33
1412.00,93.38
1411.00,93.36
1410.00,93.27
1409.00,93.14
1408.00,92.96
1407.00,92.70
1406.00,92.37
1405.00,92.00
1404.00,91.63
1403.00,91.25
1402.00,90.91
1401.00,90.57
1400.00,90.21
1399.00,89.81
1398.00,89.44
1397.00,89.06
1396.00,88.60
1395.00,88.03
1394.00,87.41
1393.00,86.82
1392.00,86.25
1391.00,85.71
1390.00,85.21
1389.00,84.80
1388.00,84.51
1387.00,84.38
1386.00,84.44
1385.00,84.66
1384.00,85.02
1383.00,85.51
1382.00,86.15
1381.00,86.90
1380.00,87.72
1379.00,88.52
1378.00,89.22
1377.00,89.77
1376.00,90.17
1375.00,90.41
1374.00,90.52
1373.00,90.52
1372.00,90.48
1371.00,90.40
1370.00,90.33
1369.00,90.27
1368.00,90.26
1367.00,90.28
1366.00,90.34
1365.00,90.43
1364.00,90.57
1363.00,90.75
1362.00,90.95
1361.00,91.15
1360.00,91.36
1359.00,91.56
1358.00,91.75
1357.00,91.93
1356.00,92.11
1355.00,92.27
1354.00,92.41
1353.00,92.55
1352.00,92.67
1351.00,92.79
1350.00,92.89
1349.00,92.98
1348.00,93.06
1347.00,93.13
1346.00,93.19
1345.00,93.24
1344.00,93.29
1343.00,93.33
1342.00,93.35
1341.00,93.38
1340.00,93.39
1339.00,93.41
1338.00,93.41
1337.00,93.42
1336.00,93.43
1335.00,93.44
1334.00,93.43
1333.00,93.41
1332.00,93.39
1331.00,93.34
1330.00,93.29
1329.00,93.24
1328.00,93.18
1327.00,93.13
1326.00,93.09
1325.00,93.06
1324.00,93.05
1323.00,93.05
1322.00,93.07
1321.00,93.09
1320.00,93.10
1319.00,93.11
1318.00,93.11
1317.00,93.10
1316.00,93.08
1315.00,93.05
1314.00,93.00
1313.00,92.94
1312.00,92.87
1311.00,92.77
1310.00,92.65
1309.00,92.51
1308.00,92.34
1307.00,92.15
1306.00,91.93
1305.00,91.70
1304.00,91.45
1303.00,91.21
1302.00,90.97
1301.00,90.75
1300.00,90.55
1299.00,90.35
1298.00,90.15
1297.00,89.94
1296.00,89.69
1295.00,89.42
1294.00,89.11
1293.00,88.76
1292.00,88.37
1291.00,87.94
1290.00,87.46
1289.00,86.92
1288.00,86.32
1287.00,85.66
1286.00,84.93
1285.00,84.11
1284.00,83.20
1283.00,82.19
1282.00,81.08
1281.00,79.87
1280.00,78.57
1279.00,77.21
1278.00,75.82
1277.00,74.44
1276.00,73.11
1275.00,71.90
1274.00,70.86
1273.00,70.02
1272.00,69.40
1271.00,69.04
1270.00,68.94
1269.00,69.06
1268.00,69.36
1267.00,69.80
1266.00,70.35
1265.00,70.93
1264.00,71.50
1263.00,72.05
1262.00,72.54
1261.00,72.94
1260.00,73.23
1259.00,73.40
1258.00,73.45
1257.00,73.37
1256.00,73.14
1255.00,72.80
1254.00,72.34
1253.00,71.76
1252.00,71.08
1251.00,70.33
1250.00,69.52
1249.00,68.67
1248.00,67.78
1247.00,66.91
1246.00,66.09
1245.00,65.31
1244.00,64.61
1243.00,64.03
1242.00,63.60
1241.00,63.30
1240.00,63.16
1239.00,63.21
1238.00,63.48
1237.00,63.92
1236.00,64.54
1235.00,65.34
1234.00,66.31
1233.00,67.39
1232.00,68.56
1231.00,69.81
1230.00,71.10
1229.00,72.41
1228.00,73.69
1227.00,74.94
1226.00,76.15
1225.00,77.28
1224.00,78.31
1223.00,79.25
1222.00,80.10
1221.00,80.82
1220.00,81.41
1219.00,81.88
1218.00,82.23
1217.00,82.44
1216.00,82.51
1215.00,82.44
1214.00,82.22
1213.00,81.84
1212.00,81.27
1211.00,80.52
1210.00,79.60
1209.00,78.49
1208.00,77.20
1207.00,75.77
1206.00,74.23
1205.00,72.58
1204.00,70.85
1203.00,69.07
1202.00,67.26
1201.00,65.43
1200.00,63.58
1199.00,61.76
1198.00,59.99
1197.00,58.28
1196.00,56.66
1195.00,55.19
1194.00,53.91
1193.00,52.86
1192.00,52.06
1191.00,51.58
1190.00,51.42
1189.00,51.55
1188.00,51.91
1187.00,52.46
1186.00,53.13
1185.00,53.79
1184.00,54.37
1183.00,54.84
1182.00,55.17
1181.00,55.35
1180.00,55.39
1179.00,55.34
1178.00,55.25
1177.00,55.11
1176.00,54.94
1175.00,54.79
1174.00,54.66
1173.00,54.53
1172.00,54.37
1171.00,54.21
1170.00,54.03
1169.00,53.80
1168.00,53.52
1167.00,53.20
1166.00,52.84
1165.00,52.40
1164.00,51.88
1163.00,51.29
1162.00,50.61
1161.00,49.80
1160.00,48.84
1159.00,47.74
1158.00,46.48
1157.00,45.01
1156.00,43.33
1155.00,41.49
1154.00,39.51
1153.00,37.43
1152.00,35.29
1151.00,33.21
1150.00,31.27
1149.00,29.51
1148.00,27.99
1147.00,26.77
1146.00,25.90
1145.00,25.31
1144.00,25.00
1143.00,24.98
1142.00,25.23
1141.00,25.67
1140.00,26.28
1139.00,27.08
1138.00,28.07
1137.00,29.20
1136.00,30.44
1135.00,31.83
1134.00,33.35
1133.00,34.93
1132.00,36.52
1131.00,38.15
1130.00,39.77
1129.00,41.34
1128.00,42.83
1127.00,44.28
1126.00,45.69
1125.00,47.04
1124.00,48.33
1123.00,49.61
1122.00,50.90
1121.00,52.15
1120.00,53.38
1119.00,54.62
1118.00,55.86
1117.00,57.08
1116.00,58.27
1115.00,59.45
1114.00,60.61
1113.00,61.73
1112.00,62.82
1111.00,63.89
1110.00,64.95
1109.00,65.98
1108.00,66.96
1107.00,67.92
1106.00,68.86
1105.00,69.77
1104.00,70.63
1103.00,71.46
1102.00,72.25
1101.00,73.00
1100.00,73.71
1099.00,74.39
1098.00,75.04
1097.00,75.66
1096.00,76.24
1095.00,76.81
1094.00,77.35
1093.00,77.84
1092.00,78.30
1091.00,78.72
1090.00,79.10
1089.00,79.44
1088.00,79.73
1087.00,79.98
1086.00,80.20
1085.00,80.37
1084.00,80.49
1083.00,80.57
1082.00,80.62
1081.00,80.62
1080.00,80.59
1079.00,80.54
1078.00,80.46
1077.00,80.34
1076.00,80.19
1075.00,80.00
1074.00,79.78
1073.00,79.52
1072.00,79.21
1071.00,78.86
1070.00,78.48
1069.00,78.06
1068.00,77.63
1067.00,77.20
1066.00,76.80
1065.00,76.45
1064.00,76.20
1063.00,76.10
1062.00,76.22
1061.00,76.57
1060.00,77.18
1059.00,78.08
1058.00,79.24
1057.00,80.61
1056.00,82.11
1055.00,83.69
1054.00,85.26
1053.00,86.74
1052.00,88.09
1051.00,89.28
1050.00,90.30
1049.00,91.15
1048.00,91.86
1047.00,92.45
1046.00,92.94
1045.00,93.37
1044.00,93.74
1043.00,94.06
1042.00,94.36
1041.00,94.62
1040.00,94.85
1039.00,95.05
1038.00,95.23
1037.00,95.40
1036.00,95.55
1035.00,95.69
1034.00,95.81
1033.00,95.92
1032.00,96.02
1031.00,96.09
1030.00,96.15
1029.00,96.19
1028.00,96.22
1027.00,96.23
1026.00,96.23
1025.00,96.21
1024.00,96.18
1023.00,96.14
1022.00,96.09
1021.00,96.05
1020.00,96.02
1019.00,95.98
1018.00,95.94
1017.00,95.88
1016.00,95.80
1015.00,95.70
1014.00,95.57
1013.00,95.41
1012.00,95.20
1011.00,94.94
1010.00,94.59
1009.00,94.13
1008.00,93.53
1007.00,92.77
1006.00,91.84
1005.00,90.73
1004.00,89.45
1003.00,88.02
1002.00,86.48
1001.00,84.85
1000.00,83.19
999.00,81.54
998.00,79.95
997.00,78.45
996.00,77.06
995.00,75.80
994.00,74.69
993.00,73.73
992.00,72.91
991.00,72.25
990.00,71.74
989.00,71.36
988.00,71.10
987.00,70.97
986.00,70.98
985.00,71.11
984.00,71.36
983.00,71.73
982.00,72.22
981.00,72.80
980.00,73.43
979.00,74.08
978.00,74.71
977.00,75.24
976.00,75.63
975.00,75.83
974.00,75.84
973.00,75.63
972.00,75.23
971.00,74.70
970.00,74.12
969.00,73.57
968.00,73.12
967.00,72.84
966.00,72.77
965.00,72.89
964.00,73.19
963.00,73.63
962.00,74.19
961.00,74.83
960.00,75.50
959.00,76.19
958.00,76.91
957.00,77.62
956.00,78.32
955.00,79.01
954.00,79.68
953.00,80.32
952.00,80.94
951.00,81.53
950.00,82.10
949.00,82.66
948.00,83.18
947.00,83.69
946.00,84.18
945.00,84.65
944.00,85.10
943.00,85.52
942.00,85.93
941.00,86.30
940.00,86.65
939.00,86.98
938.00,87.29
937.00,87.57
936.00,87.81
935.00,88.02
934.00,88.20
933.00,88.34
932.00,88.45
931.00,88.54
930.00,88.62
929.00,88.70
928.00,88.78
927.00,88.87
926.00,88.93
925.00,88.95
924.00,88.91
923.00,88.81
922.00,88.64
921.00,88.42
920.00,88.14
919.00,87.82
918.00,87.48
917.00,87.13
916.00,86.80
915.00,86.51
914.00,86.29
913.00,86.16
912.00,86.12
911.00,86.20
910.00,86.40
909.00,86.72
908.00,87.13
907.00,87.60
906.00,88.13
905.00,88.66
904.00,89.17
903.00,89.66
902.00,90.10
901.00,90.51
900.00,90.89
899.00,91.24
898.00,91.57
897.00,91.88
896.00,92.17
895.00,92.45
894.00,92.70
893.00,92.92
892.00,93.12
891.00,93.30
890.00,93.46
889.00,93.60
888.00,93.71
887.00,93.79
886.00,93.85
885.00,93.88
884.00,93.88
883.00,93.86
882.00,93.82
881.00,93.78
880.00,93.73
879.00,93.70
878.00,93.67
877.00,93.66
876.00,93.63
875.00,93.59
874.00,93.51
873.00,93.41
872.00,93.29
871.00,93.14
870.00,92.96
869.00,92.76
868.00,92.53
867.00,92.28
866.00,92.01
865.00,91.72
864.00,91.43
863.00,91.14
862.00,90.85
861.00,90.56
860.00,90.25
859.00,89.93
858.00,89.62
857.00,89.28
856.00,88.93
855.00,88.54
854.00,88.13
853.00,87.66
852.00,87.13
851.00,86.54
850.00,85.89
849.00,85.19
848.00,84.41
847.00,83.58
846.00,82.73
845.00,81.87
844.00,81.05
843.00,80.36
842.00,79.88
841.00,79.69
840.00,79.90
839.00,80.58
838.00,81.73
837.00,83.24
836.00,84.91
835.00,86.52
834.00,87.82
833.00,88.63
832.00,88.88
831.00,88.66
830.00,88.14
829.00,87.53
828.00,87.04
827.00,86.82
826.00,86.94
825.00,87.38
824.00,88.05
823.00,88.85
822.00,89.64
821.00,90.34
820.00,90.87
819.00,91.20
818.00,91.31
817.00,91.18
816.00,90.83
815.00,90.30
814.00,89.70
813.00,89.12
812.00,88.67
811.00,88.41
810.00,88.37
809.00,88.55
808.00,88.91
807.00,89.37
806.00,89.90
805.00,90.42
804.00,90.92
803.00,91.41
802.00,91.88
801.00,92.32
800.00,92.74
799.00,93.11
798.00,93.45
797.00,93.76
796.00,94.05
795.00,94.32
794.00,94.55
793.00,94.75
792.00,94.91
791.00,95.03
790.00,95.11
789.00,95.17
788.00,95.22
787.00,95.24
786.00,95.24
785.00,95.21
784.00,95.17
783.00,95.12
782.00,95.07
781.00,95.01
780.00,94.94
779.00,94.85
778.00,94.74
777.00,94.60
776.00,94.42
775.00,94.21
774.00,93.97
773.00,93.70
772.00,93.39
771.00,93.05
770.00,92.67
769.00,92.24
768.00,91.76
767.00,91.23
766.00,90.64
765.00,89.99
764.00,89.27
763.00,88.47
762.00,87.59
761.00,86.62
760.00,85.55
759.00,84.37
758.00,83.05
757.00,81.59
756.00,79.96
755.00,78.20
754.00,76.34
753.00,74.47
752.00,72.72
751.00,71.35
750.00,70.62
749.00,70.77
748.00,71.96
747.00,74.18
746.00,77.19
745.00,80.52
744.00,83.71
743.00,86.43
742.00,88.55
741.00,90.10
740.00,91.23
739.00,92.07
738.00,92.69
737.00,93.16
736.00,93.50
735.00,93.78
734.00,94.02
733.00,94.25
732.00,94.50
731.00,94.77
730.00,95.05
729.00,95.35
728.00,95.66
727.00,95.95
726.00,96.22
725.00,96.45
724.00,96.64
723.00,96.79
722.00,96.92
721.00,97.04
720.00,97.14
719.00,97.24
718.00,97.33
717.00,97.40
716.00,97.46
715.00,97.51
714.00,97.57
713.00,97.63
712.00,97.68
711.00,97.70
710.00,97.70
709.00,97.70
708.00,97.70
707.00,97.71
706.00,97.73
705.00,97.75
704.00,97.77
703.00,97.79
702.00,97.80
701.00,97.81
700.00,97.81
699.00,97.81
698.00,97.80
697.00,97.78
696.00,97.78
695.00,97.78
694.00,97.79
693.00,97.81
692.00,97.83
691.00,97.84
690.00,97.84
689.00,97.86
688.00,97.86
687.00,97.86
686.00,97.86
685.00,97.86
684.00,97.85
683.00,97.82
682.00,97.78
681.00,97.73
680.00,97.69
679.00,97.66
678.00,97.63
677.00,97.62
676.00,97.60
675.00,97.59
674.00,97.57
673.00,97.55
672.00,97.53
671.00,97.51
670.00,97.47
669.00,97.40
668.00,97.29
667.00,97.19
666.00,97.14
665.00,97.08
664.00,97.01
663.00,96.93
662.00,96.87
661.00,96.83
660.00,96.79
659.00,96.77
658.00,96.76
657.00,96.74
656.00,96.71
655.00,96.65
654.00,96.58
653.00,96.52
652.00,96.51
651.00,96.55
650.00,96.60
