Created as New Dataset,PP 12kDa Sigma
cm-1,%T
4000.00,99.06
3999.00,99.06
3998.00,99.06
3997.00,99.06
3996.00,99.06
3995.00,99.06
3994.00,99.06
3993.00,99.05
3992.00,99.05
3991.00,99.06
3990.00,99.06
3989.00,99.06
3988.00,99.07
3987.00,99.07
3986.00,99.07
3985.00,99.07
3984.00,99.07
3983.00,99.07
3982.00,99.07
3981.00,99.07
3980.00,99.07
3979.00,99.07
3978.00,99.07
3977.00,99.07
3976.00,99.08
3975.00,99.08
3974.00,99.08
3973.00,99.09
3972.00,99.09
3971.00,99.09
3970.00,99.09
3969.00,99.09
3968.00,99.09
3967.00,99.09
3966.00,99.08
3965.00,99.08
3964.00,99.08
3963.00,99.08
3962.00,99.08
3961.00,99.08
3960.00,99.08
3959.00,99.08
3958.00,99.08
3957.00,99.08
3956.00,99.09
3955.00,99.09
3954.00,99.09
3953.00,99.09
3952.00,99.09
3951.00,99.09
3950.00,99.09
3949.00,99.09
3948.00,99.09
3947.00,99.09
3946.00,99.09
3945.00,99.09
3944.00,99.09
3943.00,99.09
3942.00,99.09
3941.00,99.09
3940.00,99.09
3939.00,99.09
3938.00,99.09
3937.00,99.09
3936.00,99.08
3935.00,99.08
3934.00,99.08
3933.00,99.08
3932.00,99.08
3931.00,99.08
3930.00,99.07
3929.00,99.07
3928.00,99.07
3927.00,99.07
3926.00,99.07
3925.00,99.07
3924.00,99.07
3923.00,99.07
3922.00,99.07
3921.00,99.07
3920.00,99.08
3919.00,99.08
3918.00,99.08
3917.00,99.08
3916.00,99.07
3915.00,99.08
3914.00,99.08
3913.00,99.08
3912.00,99.08
3911.00,99.08
3910.00,99.08
3909.00,99.08
3908.00,99.08
3907.00,99.09
3906.00,99.09
3905.00,99.09
3904.00,99.09
3903.00,99.09
3902.00,99.09
3901.00,99.09
3900.00,99.09
3899.00,99.08
3898.00,99.08
3897.00,99.08
3896.00,99.08
3895.00,99.08
3894.00,99.08
3893.00,99.08
3892.00,99.08
3891.00,99.08
3890.00,99.08
3889.00,99.08
3888.00,99.09
3887.00,99.08
3886.00,99.08
3885.00,99.08
3884.00,99.08
3883.00,99.08
3882.00,99.08
3881.00,99.07
3880.00,99.06
3879.00,99.06
3878.00,99.07
3877.00,99.07
3876.00,99.07
3875.00,99.07
3874.00,99.07
3873.00,99.08
3872.00,99.08
3871.00,99.08
3870.00,99.08
3869.00,99.07
3868.00,99.08
3867.00,99.08
3866.00,99.08
3865.00,99.08
3864.00,99.08
3863.00,99.08
3862.00,99.08
3861.00,99.08
3860.00,99.08
3859.00,99.08
3858.00,99.08
3857.00,99.09
3856.00,99.10
3855.00,99.11
3854.00,99.11
3853.00,99.11
3852.00,99.11
3851.00,99.12
3850.00,99.12
3849.00,99.10
3848.00,99.09
3847.00,99.08
3846.00,99.07
3845.00,99.07
3844.00,99.07
3843.00,99.07
3842.00,99.07
3841.00,99.07
3840.00,99.07
3839.00,99.07
3838.00,99.08
3837.00,99.08
3836.00,99.08
3835.00,99.08
3834.00,99.08
3833.00,99.08
3832.00,99.07
3831.00,99.07
3830.00,99.06
3829.00,99.06
3828.00,99.07
3827.00,99.06
3826.00,99.06
3825.00,99.07
3824.00,99.07
3823.00,99.08
3822.00,99.07
3821.00,99.07
3820.00,99.07
3819.00,99.07
3818.00,99.07
3817.00,99.07
3816.00,99.07
3815.00,99.07
3814.00,99.07
3813.00,99.07
3812.00,99.07
3811.00,99.06
3810.00,99.06
3809.00,99.07
3808.00,99.06
3807.00,99.06
3806.00,99.06
3805.00,99.06
3804.00,99.06
3803.00,99.06
3802.00,99.06
3801.00,99.06
3800.00,99.06
3799.00,99.06
3798.00,99.06
3797.00,99.05
3796.00,99.05
3795.00,99.05
3794.00,99.05
3793.00,99.05
3792.00,99.05
3791.00,99.04
3790.00,99.04
3789.00,99.04
3788.00,99.04
3787.00,99.04
3786.00,99.04
3785.00,99.04
3784.00,99.03
3783.00,99.04
3782.00,99.04
3781.00,99.03
3780.00,99.03
3779.00,99.03
3778.00,99.03
3777.00,99.03
3776.00,99.03
3775.00,99.03
3774.00,99.03
3773.00,99.03
3772.00,99.02
3771.00,99.02
3770.00,99.02
3769.00,99.02
3768.00,99.02
3767.00,99.02
3766.00,99.02
3765.00,99.01
3764.00,99.01
3763.00,99.00
3762.00,99.00
3761.00,99.01
3760.00,99.01
3759.00,99.01
3758.00,99.01
3757.00,99.01
3756.00,99.02
3755.00,99.03
3754.00,99.03
3753.00,99.04
3752.00,99.04
3751.00,99.03
3750.00,99.03
3749.00,99.03
3748.00,99.04
3747.00,99.04
3746.00,99.04
3745.00,99.04
3744.00,99.04
3743.00,99.05
3742.00,99.05
3741.00,99.05
3740.00,99.04
3739.00,99.04
3738.00,99.04
3737.00,99.04
3736.00,99.05
3735.00,99.05
3734.00,99.06
3733.00,99.06
3732.00,99.06
3731.00,99.06
3730.00,99.06
3729.00,99.06
3728.00,99.06
3727.00,99.06
3726.00,99.05
3725.00,99.05
3724.00,99.06
3723.00,99.06
3722.00,99.06
3721.00,99.06
3720.00,99.06
3719.00,99.06
3718.00,99.05
3717.00,99.04
3716.00,99.04
3715.00,99.04
3714.00,99.05
3713.00,99.05
3712.00,99.06
3711.00,99.06
3710.00,99.06
3709.00,99.06
3708.00,99.06
3707.00,99.07
3706.00,99.07
3705.00,99.07
3704.00,99.07
3703.00,99.07
3702.00,99.07
3701.00,99.07
3700.00,99.07
3699.00,99.07
3698.00,99.07
3697.00,99.07
3696.00,99.06
3695.00,99.06
3694.00,99.06
3693.00,99.07
3692.00,99.07
3691.00,99.06
3690.00,99.06
3689.00,99.06
3688.00,99.06
3687.00,99.07
3686.00,99.07
3685.00,99.07
3684.00,99.06
3683.00,99.07
3682.00,99.07
3681.00,99.07
3680.00,99.08
3679.00,99.08
3678.00,99.08
3677.00,99.08
3676.00,99.08
3675.00,99.07
3674.00,99.08
3673.00,99.09
3672.00,99.09
3671.00,99.09
3670.00,99.08
3669.00,99.08
3668.00,99.09
3667.00,99.09
3666.00,99.09
3665.00,99.08
3664.00,99.08
3663.00,99.07
3662.00,99.07
3661.00,99.07
3660.00,99.08
3659.00,99.08
3658.00,99.08
3657.00,99.08
3656.00,99.07
3655.00,99.08
3654.00,99.08
3653.00,99.10
3652.00,99.11
3651.00,99.12
3650.00,99.12
3649.00,99.11
3648.00,99.11
3647.00,99.10
3646.00,99.10
3645.00,99.09
3644.00,99.08
3643.00,99.08
3642.00,99.08
3641.00,99.08
3640.00,99.08
3639.00,99.08
3638.00,99.08
3637.00,99.08
3636.00,99.09
3635.00,99.09
3634.00,99.09
3633.00,99.10
3632.00,99.11
3631.00,99.12
3630.00,99.12
3629.00,99.12
3628.00,99.12
3627.00,99.12
3626.00,99.12
3625.00,99.12
3624.00,99.12
3623.00,99.11
3622.00,99.11
3621.00,99.12
3620.00,99.12
3619.00,99.12
3618.00,99.12
3617.00,99.12
3616.00,99.12
3615.00,99.11
3614.00,99.11
3613.00,99.11
3612.00,99.10
3611.00,99.10
3610.00,99.10
3609.00,99.10
3608.00,99.10
3607.00,99.11
3606.00,99.11
3605.00,99.11
3604.00,99.11
3603.00,99.11
3602.00,99.11
3601.00,99.11
3600.00,99.11
3599.00,99.11
3598.00,99.11
3597.00,99.12
3596.00,99.12
3595.00,99.12
3594.00,99.12
3593.00,99.12
3592.00,99.12
3591.00,99.12
3590.00,99.12
3589.00,99.12
3588.00,99.12
3587.00,99.12
3586.00,99.12
3585.00,99.13
3584.00,99.13
3583.00,99.13
3582.00,99.12
3581.00,99.12
3580.00,99.11
3579.00,99.11
3578.00,99.11
3577.00,99.12
3576.00,99.12
3575.00,99.12
3574.00,99.12
3573.00,99.12
3572.00,99.12
3571.00,99.12
3570.00,99.12
3569.00,99.12
3568.00,99.11
3567.00,99.11
3566.00,99.10
3565.00,99.10
3564.00,99.10
3563.00,99.10
3562.00,99.10
3561.00,99.10
3560.00,99.10
3559.00,99.10
3558.00,99.10
3557.00,99.10
3556.00,99.10
3555.00,99.11
3554.00,99.10
3553.00,99.10
3552.00,99.10
3551.00,99.10
3550.00,99.10
3549.00,99.10
3548.00,99.10
3547.00,99.10
3546.00,99.10
3545.00,99.09
3544.00,99.09
3543.00,99.10
3542.00,99.10
3541.00,99.10
3540.00,99.10
3539.00,99.10
3538.00,99.09
3537.00,99.09
3536.00,99.09
3535.00,99.09
3534.00,99.08
3533.00,99.09
3532.00,99.09
3531.00,99.08
3530.00,99.08
3529.00,99.08
3528.00,99.08
3527.00,99.08
3526.00,99.08
3525.00,99.08
3524.00,99.08
3523.00,99.08
3522.00,99.08
3521.00,99.08
3520.00,99.08
3519.00,99.08
3518.00,99.08
3517.00,99.08
3516.00,99.08
3515.00,99.08
3514.00,99.08
3513.00,99.08
3512.00,99.08
3511.00,99.09
3510.00,99.09
3509.00,99.08
3508.00,99.08
3507.00,99.08
3506.00,99.08
3505.00,99.08
3504.00,99.08
3503.00,99.08
3502.00,99.09
3501.00,99.09
3500.00,99.09
3499.00,99.09
3498.00,99.09
3497.00,99.09
3496.00,99.08
3495.00,99.08
3494.00,99.08
3493.00,99.08
3492.00,99.09
3491.00,99.09
3490.00,99.08
3489.00,99.08
3488.00,99.08
3487.00,99.08
3486.00,99.07
3485.00,99.07
3484.00,99.07
3483.00,99.07
3482.00,99.07
3481.00,99.07
3480.00,99.08
3479.00,99.08
3478.00,99.08
3477.00,99.08
3476.00,99.07
3475.00,99.07
3474.00,99.07
3473.00,99.07
3472.00,99.07
3471.00,99.07
3470.00,99.07
3469.00,99.07
3468.00,99.07
3467.00,99.07
3466.00,99.08
3465.00,99.08
3464.00,99.08
3463.00,99.08
3462.00,99.07
3461.00,99.07
3460.00,99.07
3459.00,99.06
3458.00,99.06
3457.00,99.06
3456.00,99.06
3455.00,99.06
3454.00,99.07
3453.00,99.07
3452.00,99.07
3451.00,99.07
3450.00,99.07
3449.00,99.07
3448.00,99.07
3447.00,99.06
3446.00,99.06
3445.00,99.06
3444.00,99.06
3443.00,99.06
3442.00,99.06
3441.00,99.05
3440.00,99.05
3439.00,99.05
3438.00,99.05
3437.00,99.05
3436.00,99.05
3435.00,99.05
3434.00,99.05
3433.00,99.04
3432.00,99.04
3431.00,99.04
3430.00,99.04
3429.00,99.04
3428.00,99.04
3427.00,99.04
3426.00,99.04
3425.00,99.04
3424.00,99.04
3423.00,99.04
3422.00,99.04
3421.00,99.04
3420.00,99.04
3419.00,99.04
3418.00,99.03
3417.00,99.03
3416.00,99.03
3415.00,99.03
3414.00,99.03
3413.00,99.03
3412.00,99.03
3411.00,99.03
3410.00,99.03
3409.00,99.04
3408.00,99.04
3407.00,99.05
3406.00,99.05
3405.00,99.05
3404.00,99.05
3403.00,99.05
3402.00,99.05
3401.00,99.05
3400.00,99.04
3399.00,99.04
3398.00,99.04
3397.00,99.04
3396.00,99.04
3395.00,99.04
3394.00,99.04
3393.00,99.04
3392.00,99.04
3391.00,99.04
3390.00,99.04
3389.00,99.04
3388.00,99.04
3387.00,99.04
3386.00,99.04
3385.00,99.04
3384.00,99.04
3383.00,99.04
3382.00,99.04
3381.00,99.04
3380.00,99.04
3379.00,99.03
3378.00,99.03
3377.00,99.03
3376.00,99.03
3375.00,99.03
3374.00,99.03
3373.00,99.03
3372.00,99.04
3371.00,99.04
3370.00,99.04
3369.00,99.04
3368.00,99.03
3367.00,99.03
3366.00,99.02
3365.00,99.02
3364.00,99.02
3363.00,99.02
3362.00,99.02
3361.00,99.02
3360.00,99.02
3359.00,99.01
3358.00,99.01
3357.00,99.01
3356.00,99.02
3355.00,99.02
3354.00,99.02
3353.00,99.02
3352.00,99.02
3351.00,99.02
3350.00,99.02
3349.00,99.03
3348.00,99.03
3347.00,99.02
3346.00,99.02
3345.00,99.02
3344.00,99.02
3343.00,99.02
3342.00,99.02
3341.00,99.03
3340.00,99.03
3339.00,99.03
3338.00,99.03
3337.00,99.03
3336.00,99.03
3335.00,99.03
3334.00,99.04
3333.00,99.04
3332.00,99.04
3331.00,99.04
3330.00,99.04
3329.00,99.04
3328.00,99.04
3327.00,99.04
3326.00,99.04
3325.00,99.04
3324.00,99.04
3323.00,99.05
3322.00,99.05
3321.00,99.05
3320.00,99.05
3319.00,99.05
3318.00,99.05
3317.00,99.05
3316.00,99.05
3315.00,99.05
3314.00,99.05
3313.00,99.05
3312.00,99.05
3311.00,99.05
3310.00,99.04
3309.00,99.04
3308.00,99.04
3307.00,99.04
3306.00,99.04
3305.00,99.04
3304.00,99.04
3303.00,99.04
3302.00,99.04
3301.00,99.03
3300.00,99.03
3299.00,99.03
3298.00,99.03
3297.00,99.03
3296.00,99.03
3295.00,99.03
3294.00,99.03
3293.00,99.03
3292.00,99.03
3291.00,99.03
3290.00,99.03
3289.00,99.03
3288.00,99.03
3287.00,99.03
3286.00,99.03
3285.00,99.03
3284.00,99.03
3283.00,99.03
3282.00,99.03
3281.00,99.03
3280.00,99.03
3279.00,99.03
3278.00,99.03
3277.00,99.03
3276.00,99.03
3275.00,99.03
3274.00,99.03
3273.00,99.03
3272.00,99.03
3271.00,99.03
3270.00,99.03
3269.00,99.04
3268.00,99.04
3267.00,99.05
3266.00,99.05
3265.00,99.05
3264.00,99.04
3263.00,99.04
3262.00,99.04
3261.00,99.04
3260.00,99.04
3259.00,99.04
3258.00,99.04
3257.00,99.04
3256.00,99.04
3255.00,99.04
3254.00,99.04
3253.00,99.04
3252.00,99.04
3251.00,99.04
3250.00,99.04
3249.00,99.04
3248.00,99.04
3247.00,99.04
3246.00,99.04
3245.00,99.03
3244.00,99.03
3243.00,99.03
3242.00,99.03
3241.00,99.03
3240.00,99.03
3239.00,99.03
3238.00,99.02
3237.00,99.02
3236.00,99.01
3235.00,99.01
3234.00,99.00
3233.00,99.00
3232.00,99.00
3231.00,98.99
3230.00,98.99
3229.00,98.99
3228.00,98.98
3227.00,98.98
3226.00,98.97
3225.00,98.97
3224.00,98.96
3223.00,98.96
3222.00,98.96
3221.00,98.96
3220.00,98.95
3219.00,98.95
3218.00,98.94
3217.00,98.94
3216.00,98.93
3215.00,98.93
3214.00,98.93
3213.00,98.92
3212.00,98.92
3211.00,98.91
3210.00,98.91
3209.00,98.90
3208.00,98.90
3207.00,98.90
3206.00,98.90
3205.00,98.90
3204.00,98.89
3203.00,98.89
3202.00,98.89
3201.00,98.88
3200.00,98.88
3199.00,98.88
3198.00,98.88
3197.00,98.87
3196.00,98.87
3195.00,98.87
3194.00,98.87
3193.00,98.87
3192.00,98.87
3191.00,98.88
3190.00,98.88
3189.00,98.87
3188.00,98.87
3187.00,98.87
3186.00,98.87
3185.00,98.87
3184.00,98.87
3183.00,98.88
3182.00,98.88
3181.00,98.88
3180.00,98.89
3179.00,98.89
3178.00,98.89
3177.00,98.89
3176.00,98.89
3175.00,98.89
3174.00,98.89
3173.00,98.89
3172.00,98.90
3171.00,98.90
3170.00,98.90
3169.00,98.90
3168.00,98.90
3167.00,98.90
3166.00,98.90
3165.00,98.90
3164.00,98.90
3163.00,98.90
3162.00,98.90
3161.00,98.90
3160.00,98.90
3159.00,98.90
3158.00,98.89
3157.00,98.89
3156.00,98.89
3155.00,98.89
3154.00,98.88
3153.00,98.88
3152.00,98.88
3151.00,98.88
3150.00,98.88
3149.00,98.88
3148.00,98.88
3147.00,98.88
3146.00,98.88
3145.00,98.88
3144.00,98.88
3143.00,98.88
3142.00,98.88
3141.00,98.88
3140.00,98.89
3139.00,98.89
3138.00,98.89
3137.00,98.89
3136.00,98.89
3135.00,98.90
3134.00,98.90
3133.00,98.90
3132.00,98.90
3131.00,98.90
3130.00,98.90
3129.00,98.91
3128.00,98.91
3127.00,98.92
3126.00,98.92
3125.00,98.93
3124.00,98.93
3123.00,98.93
3122.00,98.93
3121.00,98.93
3120.00,98.93
3119.00,98.93
3118.00,98.94
3117.00,98.94
3116.00,98.94
3115.00,98.94
3114.00,98.94
3113.00,98.94
3112.00,98.94
3111.00,98.94
3110.00,98.94
3109.00,98.94
3108.00,98.94
3107.00,98.95
3106.00,98.95
3105.00,98.95
3104.00,98.95
3103.00,98.95
3102.00,98.95
3101.00,98.95
3100.00,98.95
3099.00,98.95
3098.00,98.95
3097.00,98.95
3096.00,98.94
3095.00,98.94
3094.00,98.94
3093.00,98.93
3092.00,98.93
3091.00,98.93
3090.00,98.93
3089.00,98.93
3088.00,98.93
3087.00,98.93
3086.00,98.92
3085.00,98.91
3084.00,98.91
3083.00,98.90
3082.00,98.90
3081.00,98.90
3080.00,98.89
3079.00,98.89
3078.00,98.88
3077.00,98.88
3076.00,98.88
3075.00,98.88
3074.00,98.88
3073.00,98.87
3072.00,98.87
3071.00,98.88
3070.00,98.88
3069.00,98.89
3068.00,98.90
3067.00,98.90
3066.00,98.90
3065.00,98.91
3064.00,98.91
3063.00,98.91
3062.00,98.91
3061.00,98.91
3060.00,98.91
3059.00,98.91
3058.00,98.90
3057.00,98.90
3056.00,98.90
3055.00,98.89
3054.00,98.89
3053.00,98.89
3052.00,98.89
3051.00,98.89
3050.00,98.89
3049.00,98.89
3048.00,98.89
3047.00,98.89
3046.00,98.88
3045.00,98.88
3044.00,98.87
3043.00,98.87
3042.00,98.87
3041.00,98.87
3040.00,98.86
3039.00,98.86
3038.00,98.86
3037.00,98.85
3036.00,98.85
3035.00,98.84
3034.00,98.83
3033.00,98.83
3032.00,98.82
3031.00,98.81
3030.00,98.81
3029.00,98.80
3028.00,98.79
3027.00,98.78
3026.00,98.77
3025.00,98.76
3024.00,98.74
3023.00,98.73
3022.00,98.72
3021.00,98.70
3020.00,98.69
3019.00,98.67
3018.00,98.66
3017.00,98.64
3016.00,98.61
3015.00,98.59
3014.00,98.57
3013.00,98.55
3012.00,98.52
3011.00,98.50
3010.00,98.47
3009.00,98.45
3008.00,98.42
3007.00,98.39
3006.00,98.35
3005.00,98.31
3004.00,98.27
3003.00,98.23
3002.00,98.18
3001.00,98.12
3000.00,98.06
2999.00,98.00
2998.00,97.92
2997.00,97.85
2996.00,97.76
2995.00,97.67
2994.00,97.57
2993.00,97.46
2992.00,97.33
2991.00,97.20
2990.00,97.05
2989.00,96.88
2988.00,96.69
2987.00,96.49
2986.00,96.25
2985.00,95.99
2984.00,95.70
2983.00,95.38
2982.00,95.02
2981.00,94.62
2980.00,94.17
2979.00,93.66
2978.00,93.09
2977.00,92.45
2976.00,91.73
2975.00,90.93
2974.00,90.04
2973.00,89.05
2972.00,87.98
2971.00,86.81
2970.00,85.55
2969.00,84.21
2968.00,82.79
2967.00,81.33
2966.00,79.83
2965.00,78.36
2964.00,76.96
2963.00,75.68
2962.00,74.57
2961.00,73.65
2960.00,72.90
2959.00,72.27
2958.00,71.72
2957.00,71.19
2956.00,70.63
2955.00,70.04
2954.00,69.46
2953.00,68.95
2952.00,68.61
2951.00,68.55
2950.00,68.85
2949.00,69.57
2948.00,70.71
2947.00,72.22
2946.00,73.99
2945.00,75.85
2944.00,77.65
2943.00,79.23
2942.00,80.51
2941.00,81.42
2940.00,81.97
2939.00,82.16
2938.00,82.03
2937.00,81.62
2936.00,80.97
2935.00,80.11
2934.00,79.07
2933.00,77.90
2932.00,76.62
2931.00,75.28
2930.00,73.92
2929.00,72.59
2928.00,71.32
2927.00,70.14
2926.00,69.04
2925.00,68.02
2924.00,67.06
2923.00,66.14
2922.00,65.28
2921.00,64.49
2920.00,63.84
2919.00,63.40
2918.00,63.21
2917.00,63.31
2916.00,63.69
2915.00,64.28
2914.00,65.03
2913.00,65.85
2912.00,66.69
2911.00,67.50
2910.00,68.27
2909.00,69.01
2908.00,69.74
2907.00,70.48
2906.00,71.24
2905.00,72.05
2904.00,72.89
2903.00,73.75
2902.00,74.64
2901.00,75.52
2900.00,76.40
2899.00,77.25
2898.00,78.05
2897.00,78.80
2896.00,79.47
2895.00,80.05
2894.00,80.54
2893.00,80.94
2892.00,81.25
2891.00,81.47
2890.00,81.61
2889.00,81.68
2888.00,81.69
2887.00,81.64
2886.00,81.54
2885.00,81.37
2884.00,81.14
2883.00,80.85
2882.00,80.50
2881.00,80.12
2880.00,79.76
2879.00,79.46
2878.00,79.26
2877.00,79.17
2876.00,79.19
2875.00,79.25
2874.00,79.30
2873.00,79.29
2872.00,79.19
2871.00,79.03
2870.00,78.86
2869.00,78.75
2868.00,78.81
2867.00,79.15
2866.00,79.84
2865.00,80.89
2864.00,82.24
2863.00,83.76
2862.00,85.30
2861.00,86.74
2860.00,87.98
2859.00,88.98
2858.00,89.73
2857.00,90.26
2856.00,90.58
2855.00,90.73
2854.00,90.72
2853.00,90.57
2852.00,90.29
2851.00,89.88
2850.00,89.36
2849.00,88.71
2848.00,87.93
2847.00,87.04
2846.00,86.04
2845.00,84.95
2844.00,83.80
2843.00,82.63
2842.00,81.50
2841.00,80.50
2840.00,79.70
2839.00,79.21
2838.00,79.11
2837.00,79.47
2836.00,80.28
2835.00,81.49
2834.00,82.99
2833.00,84.63
2832.00,86.25
2831.00,87.76
2830.00,89.08
2829.00,90.19
2828.00,91.10
2827.00,91.85
2826.00,92.45
2825.00,92.95
2824.00,93.37
2823.00,93.73
2822.00,94.03
2821.00,94.30
2820.00,94.52
2819.00,94.72
2818.00,94.90
2817.00,95.05
2816.00,95.19
2815.00,95.31
2814.00,95.42
2813.00,95.53
2812.00,95.63
2811.00,95.73
2810.00,95.83
2809.00,95.93
2808.00,96.03
2807.00,96.15
2806.00,96.26
2805.00,96.38
2804.00,96.49
2803.00,96.60
2802.00,96.70
2801.00,96.78
2800.00,96.84
2799.00,96.89
2798.00,96.94
2797.00,96.98
2796.00,97.03
2795.00,97.08
2794.00,97.13
2793.00,97.18
2792.00,97.24
2791.00,97.30
2790.00,97.37
2789.00,97.43
2788.00,97.49
2787.00,97.54
2786.00,97.59
2785.00,97.64
2784.00,97.69
2783.00,97.73
2782.00,97.77
2781.00,97.80
2780.00,97.83
2779.00,97.86
2778.00,97.89
2777.00,97.91
2776.00,97.93
2775.00,97.96
2774.00,97.98
2773.00,97.99
2772.00,98.01
2771.00,98.02
2770.00,98.03
2769.00,98.03
2768.00,98.04
2767.00,98.05
2766.00,98.05
2765.00,98.06
2764.00,98.07
2763.00,98.09
2762.00,98.10
2761.00,98.11
2760.00,98.13
2759.00,98.14
2758.00,98.15
2757.00,98.15
2756.00,98.16
2755.00,98.16
2754.00,98.16
2753.00,98.17
2752.00,98.17
2751.00,98.17
2750.00,98.17
2749.00,98.16
2748.00,98.15
2747.00,98.15
2746.00,98.14
2745.00,98.12
2744.00,98.11
2743.00,98.09
2742.00,98.07
2741.00,98.05
2740.00,98.02
2739.00,98.00
2738.00,97.97
2737.00,97.94
2736.00,97.91
2735.00,97.89
2734.00,97.86
2733.00,97.83
2732.00,97.79
2731.00,97.75
2730.00,97.70
2729.00,97.66
2728.00,97.60
2727.00,97.55
2726.00,97.51
2725.00,97.47
2724.00,97.45
2723.00,97.45
2722.00,97.47
2721.00,97.51
2720.00,97.56
2719.00,97.62
2718.00,97.68
2717.00,97.74
2716.00,97.79
2715.00,97.84
2714.00,97.88
2713.00,97.92
2712.00,97.96
2711.00,97.99
2710.00,98.02
2709.00,98.05
2708.00,98.08
2707.00,98.11
2706.00,98.13
2705.00,98.15
2704.00,98.17
2703.00,98.19
2702.00,98.20
2701.00,98.22
2700.00,98.23
2699.00,98.24
2698.00,98.24
2697.00,98.25
2696.00,98.26
2695.00,98.26
2694.00,98.26
2693.00,98.26
2692.00,98.26
2691.00,98.26
2690.00,98.26
2689.00,98.26
2688.00,98.26
2687.00,98.26
2686.00,98.26
2685.00,98.26
2684.00,98.26
2683.00,98.26
2682.00,98.26
2681.00,98.26
2680.00,98.26
2679.00,98.26
2678.00,98.26
2677.00,98.26
2676.00,98.26
2675.00,98.27
2674.00,98.27
2673.00,98.28
2672.00,98.28
2671.00,98.29
2670.00,98.29
2669.00,98.29
2668.00,98.29
2667.00,98.28
2666.00,98.28
2665.00,98.27
2664.00,98.25
2663.00,98.24
2662.00,98.23
2661.00,98.22
2660.00,98.22
2659.00,98.21
2658.00,98.21
2657.00,98.21
2656.00,98.21
2655.00,98.22
2654.00,98.22
2653.00,98.23
2652.00,98.23
2651.00,98.24
2650.00,98.24
2649.00,98.25
2648.00,98.25
2647.00,98.26
2646.00,98.27
2645.00,98.27
2644.00,98.28
2643.00,98.28
2642.00,98.29
2641.00,98.29
2640.00,98.30
2639.00,98.30
2638.00,98.31
2637.00,98.31
2636.00,98.31
2635.00,98.31
2634.00,98.31
2633.00,98.32
2632.00,98.31
2631.00,98.31
2630.00,98.30
2629.00,98.30
2628.00,98.29
2627.00,98.28
2626.00,98.27
2625.00,98.27
2624.00,98.26
2623.00,98.25
2622.00,98.25
2621.00,98.25
2620.00,98.25
2619.00,98.25
2618.00,98.25
2617.00,98.24
2616.00,98.24
2615.00,98.24
2614.00,98.25
2613.00,98.25
2612.00,98.26
2611.00,98.27
2610.00,98.28
2609.00,98.29
2608.00,98.31
2607.00,98.32
2606.00,98.34
2605.00,98.35
2604.00,98.36
2603.00,98.36
2602.00,98.37
2601.00,98.37
2600.00,98.37
2599.00,98.38
2598.00,98.38
2597.00,98.38
2596.00,98.38
2595.00,98.37
2594.00,98.36
2593.00,98.35
2592.00,98.34
2591.00,98.33
2590.00,98.32
2589.00,98.30
2588.00,98.28
2587.00,98.26
2586.00,98.24
2585.00,98.23
2584.00,98.22
2583.00,98.22
2582.00,98.22
2581.00,98.22
2580.00,98.23
2579.00,98.24
2578.00,98.26
2577.00,98.28
2576.00,98.30
2575.00,98.32
2574.00,98.34
2573.00,98.36
2572.00,98.37
2571.00,98.39
2570.00,98.40
2569.00,98.42
2568.00,98.43
2567.00,98.44
2566.00,98.45
2565.00,98.46
2564.00,98.47
2563.00,98.47
2562.00,98.47
2561.00,98.48
2560.00,98.48
2559.00,98.49
2558.00,98.49
2557.00,98.50
2556.00,98.51
2555.00,98.52
2554.00,98.53
2553.00,98.53
2552.00,98.54
2551.00,98.55
2550.00,98.56
2549.00,98.56
2548.00,98.57
2547.00,98.58
2546.00,98.59
2545.00,98.60
2544.00,98.60
2543.00,98.61
2542.00,98.61
2541.00,98.61
2540.00,98.61
2539.00,98.62
2538.00,98.62
2537.00,98.63
2536.00,98.64
2535.00,98.64
2534.00,98.64
2533.00,98.64
2532.00,98.64
2531.00,98.65
2530.00,98.65
2529.00,98.65
2528.00,98.66
2527.00,98.67
2526.00,98.68
2525.00,98.68
2524.00,98.69
2523.00,98.69
2522.00,98.70
2521.00,98.70
2520.00,98.71
2519.00,98.71
2518.00,98.72
2517.00,98.72
2516.00,98.72
2515.00,98.73
2514.00,98.73
2513.00,98.73
2512.00,98.73
2511.00,98.73
2510.00,98.73
2509.00,98.74
2508.00,98.74
2507.00,98.75
2506.00,98.75
2505.00,98.75
2504.00,98.75
2503.00,98.75
2502.00,98.75
2501.00,98.75
2500.00,98.75
2499.00,98.74
2498.00,98.74
2497.00,98.74
2496.00,98.74
2495.00,98.74
2494.00,98.74
2493.00,98.75
2492.00,98.75
2491.00,98.76
2490.00,98.76
2489.00,98.76
2488.00,98.76
2487.00,98.75
2486.00,98.75
2485.00,98.76
2484.00,98.76
2483.00,98.76
2482.00,98.76
2481.00,98.76
2480.00,98.76
2479.00,98.76
2478.00,98.77
2477.00,98.77
2476.00,98.78
2475.00,98.78
2474.00,98.78
2473.00,98.78
2472.00,98.78
2471.00,98.78
2470.00,98.78
2469.00,98.78
2468.00,98.78
2467.00,98.77
2466.00,98.77
2465.00,98.76
2464.00,98.76
2463.00,98.76
2462.00,98.76
2461.00,98.76
2460.00,98.76
2459.00,98.75
2458.00,98.75
2457.00,98.74
2456.00,98.74
2455.00,98.73
2454.00,98.73
2453.00,98.73
2452.00,98.73
2451.00,98.73
2450.00,98.73
2449.00,98.73
2448.00,98.74
2447.00,98.74
2446.00,98.74
2445.00,98.74
2444.00,98.74
2443.00,98.73
2442.00,98.73
2441.00,98.74
2440.00,98.74
2439.00,98.74
2438.00,98.74
2437.00,98.73
2436.00,98.72
2435.00,98.72
2434.00,98.72
2433.00,98.72
2432.00,98.72
2431.00,98.72
2430.00,98.71
2429.00,98.71
2428.00,98.71
2427.00,98.72
2426.00,98.73
2425.00,98.74
2424.00,98.75
2423.00,98.75
2422.00,98.76
2421.00,98.76
2420.00,98.77
2419.00,98.77
2418.00,98.77
2417.00,98.78
2416.00,98.78
2415.00,98.78
2414.00,98.78
2413.00,98.78
2412.00,98.78
2411.00,98.77
2410.00,98.77
2409.00,98.77
2408.00,98.78
2407.00,98.79
2406.00,98.80
2405.00,98.80
2404.00,98.80
2403.00,98.80
2402.00,98.80
2401.00,98.81
2400.00,98.81
2399.00,98.81
2398.00,98.80
2397.00,98.80
2396.00,98.80
2395.00,98.81
2394.00,98.81
2393.00,98.82
2392.00,98.82
2391.00,98.83
2390.00,98.83
2389.00,98.84
2388.00,98.84
2387.00,98.85
2386.00,98.85
2385.00,98.86
2384.00,98.87
2383.00,98.89
2382.00,98.91
2381.00,98.93
2380.00,98.95
2379.00,98.97
2378.00,98.99
2377.00,99.01
2376.00,99.02
2375.00,99.03
2374.00,99.04
2373.00,99.04
2372.00,99.04
2371.00,99.04
2370.00,99.04
2369.00,99.03
2368.00,99.03
2367.00,99.04
2366.00,99.05
2365.00,99.06
2364.00,99.06
2363.00,99.07
2362.00,99.07
2361.00,99.07
2360.00,99.06
2359.00,99.05
2358.00,99.05
2357.00,99.04
2356.00,99.04
2355.00,99.05
2354.00,99.05
2353.00,99.06
2352.00,99.06
2351.00,99.06
2350.00,99.06
2349.00,99.05
2348.00,99.05
2347.00,99.05
2346.00,99.07
2345.00,99.08
2344.00,99.08
2343.00,99.07
2342.00,99.05
2341.00,99.03
2340.00,99.02
2339.00,99.00
2338.00,98.99
2337.00,98.97
2336.00,98.96
2335.00,98.96
2334.00,98.95
2333.00,98.95
2332.00,98.96
2331.00,98.97
2330.00,98.98
2329.00,98.97
2328.00,98.93
2327.00,98.86
2326.00,98.77
2325.00,98.69
2324.00,98.64
2323.00,98.64
2322.00,98.66
2321.00,98.70
2320.00,98.74
2319.00,98.76
2318.00,98.77
2317.00,98.78
2316.00,98.78
2315.00,98.79
2314.00,98.80
2313.00,98.81
2312.00,98.81
2311.00,98.82
2310.00,98.82
2309.00,98.82
2308.00,98.82
2307.00,98.81
2306.00,98.81
2305.00,98.80
2304.00,98.79
2303.00,98.78
2302.00,98.77
2301.00,98.76
2300.00,98.75
2299.00,98.74
2298.00,98.73
2297.00,98.72
2296.00,98.71
2295.00,98.70
2294.00,98.68
2293.00,98.65
2292.00,98.63
2291.00,98.61
2290.00,98.60
2289.00,98.58
2288.00,98.57
2287.00,98.55
2286.00,98.54
2285.00,98.53
2284.00,98.52
2283.00,98.52
2282.00,98.53
2281.00,98.55
2280.00,98.56
2279.00,98.58
2278.00,98.59
2277.00,98.59
2276.00,98.59
2275.00,98.60
2274.00,98.60
2273.00,98.59
2272.00,98.59
2271.00,98.59
2270.00,98.59
2269.00,98.59
2268.00,98.60
2267.00,98.62
2266.00,98.64
2265.00,98.64
2264.00,98.64
2263.00,98.64
2262.00,98.63
2261.00,98.61
2260.00,98.59
2259.00,98.58
2258.00,98.57
2257.00,98.57
2256.00,98.59
2255.00,98.61
2254.00,98.63
2253.00,98.64
2252.00,98.65
2251.00,98.64
2250.00,98.64
2249.00,98.63
2248.00,98.63
2247.00,98.63
2246.00,98.63
2245.00,98.63
2244.00,98.63
2243.00,98.62
2242.00,98.62
2241.00,98.62
2240.00,98.62
2239.00,98.62
2238.00,98.62
2237.00,98.61
2236.00,98.61
2235.00,98.60
2234.00,98.59
2233.00,98.59
2232.00,98.58
2231.00,98.59
2230.00,98.59
2229.00,98.59
2228.00,98.59
2227.00,98.59
2226.00,98.59
2225.00,98.59
2224.00,98.59
2223.00,98.60
2222.00,98.62
2221.00,98.63
2220.00,98.63
2219.00,98.63
2218.00,98.62
2217.00,98.62
2216.00,98.61
2215.00,98.61
2214.00,98.61
2213.00,98.60
2212.00,98.60
2211.00,98.59
2210.00,98.60
2209.00,98.60
2208.00,98.59
2207.00,98.57
2206.00,98.55
2205.00,98.54
2204.00,98.53
2203.00,98.54
2202.00,98.55
2201.00,98.55
2200.00,98.54
2199.00,98.53
2198.00,98.53
2197.00,98.53
2196.00,98.52
2195.00,98.51
2194.00,98.49
2193.00,98.48
2192.00,98.47
2191.00,98.46
2190.00,98.46
2189.00,98.45
2188.00,98.44
2187.00,98.43
2186.00,98.43
2185.00,98.42
2184.00,98.42
2183.00,98.44
2182.00,98.48
2181.00,98.52
2180.00,98.54
2179.00,98.54
2178.00,98.52
2177.00,98.51
2176.00,98.51
2175.00,98.52
2174.00,98.52
2173.00,98.51
2172.00,98.48
2171.00,98.45
2170.00,98.42
2169.00,98.38
2168.00,98.32
2167.00,98.27
2166.00,98.23
2165.00,98.19
2164.00,98.16
2163.00,98.11
2162.00,98.08
2161.00,98.11
2160.00,98.28
2159.00,98.56
2158.00,98.87
2157.00,99.08
2156.00,99.17
2155.00,99.16
2154.00,99.11
2153.00,99.06
2152.00,99.01
2151.00,98.97
2150.00,98.94
2149.00,98.91
2148.00,98.91
2147.00,98.92
2146.00,98.94
2145.00,98.96
2144.00,98.97
2143.00,98.97
2142.00,98.97
2141.00,98.96
2140.00,98.95
2139.00,98.94
2138.00,98.94
2137.00,98.95
2136.00,98.97
2135.00,99.01
2134.00,99.05
2133.00,99.08
2132.00,99.09
2131.00,99.08
2130.00,99.05
2129.00,99.02
2128.00,98.98
2127.00,98.96
2126.00,98.94
2125.00,98.92
2124.00,98.91
2123.00,98.89
2122.00,98.87
2121.00,98.85
2120.00,98.84
2119.00,98.83
2118.00,98.82
2117.00,98.80
2116.00,98.77
2115.00,98.75
2114.00,98.73
2113.00,98.72
2112.00,98.71
2111.00,98.71
2110.00,98.71
2109.00,98.70
2108.00,98.70
2107.00,98.70
2106.00,98.71
2105.00,98.72
2104.00,98.72
2103.00,98.73
2102.00,98.73
2101.00,98.72
2100.00,98.72
2099.00,98.72
2098.00,98.73
2097.00,98.75
2096.00,98.78
2095.00,98.81
2094.00,98.84
2093.00,98.84
2092.00,98.84
2091.00,98.82
2090.00,98.80
2089.00,98.78
2088.00,98.76
2087.00,98.74
2086.00,98.73
2085.00,98.73
2084.00,98.72
2083.00,98.71
2082.00,98.70
2081.00,98.68
2080.00,98.67
2079.00,98.67
2078.00,98.68
2077.00,98.68
2076.00,98.68
2075.00,98.69
2074.00,98.70
2073.00,98.70
2072.00,98.70
2071.00,98.70
2070.00,98.71
2069.00,98.71
2068.00,98.71
2067.00,98.71
2066.00,98.72
2065.00,98.72
2064.00,98.72
2063.00,98.72
2062.00,98.71
2061.00,98.71
2060.00,98.70
2059.00,98.69
2058.00,98.67
2057.00,98.66
2056.00,98.65
2055.00,98.66
2054.00,98.66
2053.00,98.63
2052.00,98.55
2051.00,98.48
2050.00,98.44
2049.00,98.45
2048.00,98.49
2047.00,98.53
2046.00,98.55
2045.00,98.56
2044.00,98.56
2043.00,98.55
2042.00,98.54
2041.00,98.53
2040.00,98.52
2039.00,98.50
2038.00,98.49
2037.00,98.47
2036.00,98.48
2035.00,98.51
2034.00,98.55
2033.00,98.60
2032.00,98.63
2031.00,98.66
2030.00,98.67
2029.00,98.67
2028.00,98.66
2027.00,98.66
2026.00,98.66
2025.00,98.66
2024.00,98.66
2023.00,98.66
2022.00,98.66
2021.00,98.66
2020.00,98.66
2019.00,98.66
2018.00,98.68
2017.00,98.69
2016.00,98.70
2015.00,98.71
2014.00,98.71
2013.00,98.69
2012.00,98.67
2011.00,98.64
2010.00,98.61
2009.00,98.61
2008.00,98.64
2007.00,98.72
2006.00,98.79
2005.00,98.84
2004.00,98.84
2003.00,98.82
2002.00,98.78
2001.00,98.75
2000.00,98.72
1999.00,98.70
1998.00,98.70
1997.00,98.69
1996.00,98.69
1995.00,98.69
1994.00,98.68
1993.00,98.67
1992.00,98.66
1991.00,98.65
1990.00,98.63
1989.00,98.61
1988.00,98.60
1987.00,98.58
1986.00,98.56
1985.00,98.52
1984.00,98.47
1983.00,98.41
1982.00,98.34
1981.00,98.28
1980.00,98.25
1979.00,98.30
1978.00,98.41
1977.00,98.54
1976.00,98.64
1975.00,98.70
1974.00,98.72
1973.00,98.72
1972.00,98.73
1971.00,98.74
1970.00,98.76
1969.00,98.77
1968.00,98.78
1967.00,98.79
1966.00,98.81
1965.00,98.82
1964.00,98.83
1963.00,98.83
1962.00,98.84
1961.00,98.86
1960.00,98.89
1959.00,98.93
1958.00,98.95
1957.00,98.95
1956.00,98.94
1955.00,98.93
1954.00,98.92
1953.00,98.91
1952.00,98.90
1951.00,98.89
1950.00,98.89
1949.00,98.89
1948.00,98.89
1947.00,98.90
1946.00,98.90
1945.00,98.90
1944.00,98.90
1943.00,98.90
1942.00,98.90
1941.00,98.90
1940.00,98.89
1939.00,98.90
1938.00,98.91
1937.00,98.92
1936.00,98.92
1935.00,98.92
1934.00,98.92
1933.00,98.92
1932.00,98.92
1931.00,98.91
1930.00,98.91
1929.00,98.90
1928.00,98.89
1927.00,98.90
1926.00,98.91
1925.00,98.92
1924.00,98.92
1923.00,98.91
1922.00,98.89
1921.00,98.88
1920.00,98.86
1919.00,98.85
1918.00,98.85
1917.00,98.85
1916.00,98.86
1915.00,98.86
1914.00,98.86
1913.00,98.86
1912.00,98.86
1911.00,98.86
1910.00,98.87
1909.00,98.88
1908.00,98.88
1907.00,98.89
1906.00,98.89
1905.00,98.89
1904.00,98.88
1903.00,98.88
1902.00,98.88
1901.00,98.87
1900.00,98.87
1899.00,98.87
1898.00,98.87
1897.00,98.87
1896.00,98.87
1895.00,98.87
1894.00,98.87
1893.00,98.87
1892.00,98.87
1891.00,98.88
1890.00,98.89
1889.00,98.89
1888.00,98.89
1887.00,98.89
1886.00,98.89
1885.00,98.89
1884.00,98.89
1883.00,98.90
1882.00,98.91
1881.00,98.91
1880.00,98.91
1879.00,98.90
1878.00,98.90
1877.00,98.90
1876.00,98.91
1875.00,98.91
1874.00,98.91
1873.00,98.91
1872.00,98.91
1871.00,98.91
1870.00,98.91
1869.00,98.91
1868.00,98.90
1867.00,98.90
1866.00,98.90
1865.00,98.89
1864.00,98.89
1863.00,98.89
1862.00,98.89
1861.00,98.89
1860.00,98.89
1859.00,98.90
1858.00,98.90
1857.00,98.91
1856.00,98.91
1855.00,98.91
1854.00,98.91
1853.00,98.91
1852.00,98.91
1851.00,98.91
1850.00,98.91
1849.00,98.91
1848.00,98.91
1847.00,98.91
1846.00,98.91
1845.00,98.90
1844.00,98.90
1843.00,98.91
1842.00,98.91
1841.00,98.91
1840.00,98.91
1839.00,98.90
1838.00,98.90
1837.00,98.90
1836.00,98.90
1835.00,98.90
1834.00,98.89
1833.00,98.89
1832.00,98.88
1831.00,98.88
1830.00,98.88
1829.00,98.89
1828.00,98.90
1827.00,98.91
1826.00,98.91
1825.00,98.91
1824.00,98.90
1823.00,98.90
1822.00,98.91
1821.00,98.92
1820.00,98.93
1819.00,98.95
1818.00,98.98
1817.00,98.99
1816.00,98.99
1815.00,98.99
1814.00,98.98
1813.00,98.96
1812.00,98.95
1811.00,98.95
1810.00,98.94
1809.00,98.94
1808.00,98.94
1807.00,98.94
1806.00,98.93
1805.00,98.93
1804.00,98.93
1803.00,98.92
1802.00,98.92
1801.00,98.92
1800.00,98.92
1799.00,98.92
1798.00,98.92
1797.00,98.91
1796.00,98.91
1795.00,98.91
1794.00,98.91
1793.00,98.90
1792.00,98.90
1791.00,98.89
1790.00,98.89
1789.00,98.89
1788.00,98.88
1787.00,98.88
1786.00,98.88
1785.00,98.88
1784.00,98.88
1783.00,98.87
1782.00,98.87
1781.00,98.86
1780.00,98.86
1779.00,98.87
1778.00,98.88
1777.00,98.89
1776.00,98.89
1775.00,98.90
1774.00,98.90
1773.00,98.89
1772.00,98.88
1771.00,98.88
1770.00,98.88
1769.00,98.88
1768.00,98.87
1767.00,98.88
1766.00,98.88
1765.00,98.88
1764.00,98.88
1763.00,98.88
1762.00,98.88
1761.00,98.88
1760.00,98.88
1759.00,98.88
1758.00,98.88
1757.00,98.88
1756.00,98.88
1755.00,98.88
1754.00,98.89
1753.00,98.89
1752.00,98.89
1751.00,98.89
1750.00,98.89
1749.00,98.88
1748.00,98.87
1747.00,98.87
1746.00,98.87
1745.00,98.87
1744.00,98.87
1743.00,98.87
1742.00,98.87
1741.00,98.87
1740.00,98.87
1739.00,98.87
1738.00,98.86
1737.00,98.86
1736.00,98.85
1735.00,98.85
1734.00,98.85
1733.00,98.85
1732.00,98.85
1731.00,98.85
1730.00,98.84
1729.00,98.83
1728.00,98.83
1727.00,98.82
1726.00,98.82
1725.00,98.82
1724.00,98.81
1723.00,98.81
1722.00,98.81
1721.00,98.80
1720.00,98.80
1719.00,98.80
1718.00,98.79
1717.00,98.79
1716.00,98.79
1715.00,98.79
1714.00,98.78
1713.00,98.78
1712.00,98.77
1711.00,98.77
1710.00,98.77
1709.00,98.77
1708.00,98.77
1707.00,98.76
1706.00,98.77
1705.00,98.76
1704.00,98.77
1703.00,98.77
1702.00,98.77
1701.00,98.76
1700.00,98.76
1699.00,98.76
1698.00,98.75
1697.00,98.74
1696.00,98.73
1695.00,98.73
1694.00,98.73
1693.00,98.73
1692.00,98.73
1691.00,98.74
1690.00,98.74
1689.00,98.74
1688.00,98.74
1687.00,98.75
1686.00,98.76
1685.00,98.76
1684.00,98.75
1683.00,98.74
1682.00,98.74
1681.00,98.74
1680.00,98.73
1679.00,98.74
1678.00,98.74
1677.00,98.75
1676.00,98.75
1675.00,98.75
1674.00,98.75
1673.00,98.75
1672.00,98.74
1671.00,98.74
1670.00,98.75
1669.00,98.74
1668.00,98.74
1667.00,98.74
1666.00,98.74
1665.00,98.74
1664.00,98.73
1663.00,98.73
1662.00,98.72
1661.00,98.71
1660.00,98.70
1659.00,98.69
1658.00,98.67
1657.00,98.66
1656.00,98.64
1655.00,98.62
1654.00,98.57
1653.00,98.51
1652.00,98.47
1651.00,98.46
1650.00,98.45
1649.00,98.46
1648.00,98.47
1647.00,98.50
1646.00,98.53
1645.00,98.54
1644.00,98.55
1643.00,98.57
1642.00,98.58
1641.00,98.60
1640.00,98.61
1639.00,98.63
1638.00,98.64
1637.00,98.65
1636.00,98.66
1635.00,98.67
1634.00,98.67
1633.00,98.67
1632.00,98.67
1631.00,98.68
1630.00,98.69
1629.00,98.69
1628.00,98.70
1627.00,98.70
1626.00,98.70
1625.00,98.70
1624.00,98.70
1623.00,98.71
1622.00,98.72
1621.00,98.73
1620.00,98.73
1619.00,98.73
1618.00,98.74
1617.00,98.73
1616.00,98.73
1615.00,98.74
1614.00,98.75
1613.00,98.75
1612.00,98.74
1611.00,98.74
1610.00,98.73
1609.00,98.73
1608.00,98.73
1607.00,98.73
1606.00,98.74
1605.00,98.74
1604.00,98.75
1603.00,98.75
1602.00,98.76
1601.00,98.76
1600.00,98.76
1599.00,98.76
1598.00,98.76
1597.00,98.76
1596.00,98.76
1595.00,98.77
1594.00,98.77
1593.00,98.77
1592.00,98.77
1591.00,98.78
1590.00,98.78
1589.00,98.78
1588.00,98.77
1587.00,98.78
1586.00,98.78
1585.00,98.78
1584.00,98.78
1583.00,98.78
1582.00,98.78
1581.00,98.78
1580.00,98.78
1579.00,98.78
1578.00,98.78
1577.00,98.78
1576.00,98.77
1575.00,98.77
1574.00,98.78
1573.00,98.77
1572.00,98.77
1571.00,98.77
1570.00,98.78
1569.00,98.77
1568.00,98.77
1567.00,98.76
1566.00,98.76
1565.00,98.76
1564.00,98.76
1563.00,98.76
1562.00,98.77
1561.00,98.77
1560.00,98.75
1559.00,98.74
1558.00,98.75
1557.00,98.75
1556.00,98.74
1555.00,98.73
1554.00,98.73
1553.00,98.73
1552.00,98.72
1551.00,98.72
1550.00,98.72
1549.00,98.72
1548.00,98.72
1547.00,98.72
1546.00,98.73
1545.00,98.72
1544.00,98.72
1543.00,98.73
1542.00,98.74
1541.00,98.74
1540.00,98.73
1539.00,98.73
1538.00,98.73
1537.00,98.72
1536.00,98.72
1535.00,98.72
1534.00,98.72
1533.00,98.71
1532.00,98.70
1531.00,98.70
1530.00,98.70
1529.00,98.69
1528.00,98.68
1527.00,98.68
1526.00,98.68
1525.00,98.67
1524.00,98.66
1523.00,98.65
1522.00,98.64
1521.00,98.63
1520.00,98.62
1519.00,98.62
1518.00,98.62
1517.00,98.60
1516.00,98.58
1515.00,98.58
1514.00,98.57
1513.00,98.56
1512.00,98.55
1511.00,98.54
1510.00,98.54
1509.00,98.53
1508.00,98.50
1507.00,98.48
1506.00,98.46
1505.00,98.44
1504.00,98.42
1503.00,98.41
1502.00,98.40
1501.00,98.37
1500.00,98.34
1499.00,98.32
1498.00,98.30
1497.00,98.26
1496.00,98.21
1495.00,98.18
1494.00,98.16
1493.00,98.11
1492.00,98.06
1491.00,98.01
1490.00,97.96
1489.00,97.87
1488.00,97.78
1487.00,97.70
1486.00,97.62
1485.00,97.51
1484.00,97.39
1483.00,97.27
1482.00,97.11
1481.00,96.91
1480.00,96.69
1479.00,96.47
1478.00,96.19
1477.00,95.82
1476.00,95.37
1475.00,94.86
1474.00,94.18
1473.00,93.18
1472.00,92.00
1471.00,90.86
1470.00,89.77
1469.00,88.64
1468.00,87.45
1467.00,86.18
1466.00,84.77
1465.00,83.30
1464.00,82.03
1463.00,81.12
1462.00,80.47
1461.00,79.96
1460.00,79.57
1459.00,79.25
1458.00,78.97
1457.00,78.75
1456.00,78.67
1455.00,78.70
1454.00,78.79
1453.00,78.98
1452.00,79.33
1451.00,79.89
1450.00,80.68
1449.00,81.80
1448.00,83.24
1447.00,84.79
1446.00,86.21
1445.00,87.48
1444.00,88.59
1443.00,89.53
1442.00,90.25
1441.00,90.75
1440.00,91.07
1439.00,91.22
1438.00,91.25
1437.00,91.31
1436.00,91.56
1435.00,92.04
1434.00,92.70
1433.00,93.49
1432.00,94.31
1431.00,95.05
1430.00,95.64
1429.00,96.08
1428.00,96.39
1427.00,96.59
1426.00,96.73
1425.00,96.87
1424.00,97.00
1423.00,97.08
1422.00,97.14
1421.00,97.21
1420.00,97.28
1419.00,97.33
1418.00,97.36
1417.00,97.40
1416.00,97.44
1415.00,97.46
1414.00,97.47
1413.00,97.49
1412.00,97.52
1411.00,97.53
1410.00,97.53
1409.00,97.55
1408.00,97.57
1407.00,97.56
1406.00,97.55
1405.00,97.55
1404.00,97.56
1403.00,97.54
1402.00,97.51
1401.00,97.50
1400.00,97.48
1399.00,97.45
1398.00,97.39
1397.00,97.35
1396.00,97.30
1395.00,97.21
1394.00,97.09
1393.00,96.98
1392.00,96.86
1391.00,96.68
1390.00,96.44
1389.00,96.10
1388.00,95.59
1387.00,94.82
1386.00,93.77
1385.00,92.43
1384.00,90.63
1383.00,88.24
1382.00,85.24
1381.00,81.72
1380.00,77.83
1379.00,73.94
1378.00,70.70
1377.00,68.74
1376.00,68.51
1375.00,70.25
1374.00,73.57
1373.00,77.50
1372.00,81.19
1371.00,84.36
1370.00,87.04
1369.00,89.17
1368.00,90.70
1367.00,91.67
1366.00,92.21
1365.00,92.44
1364.00,92.41
1363.00,92.20
1362.00,91.87
1361.00,91.54
1360.00,91.33
1359.00,91.32
1358.00,91.56
1357.00,92.04
1356.00,92.68
1355.00,93.38
1354.00,94.05
1353.00,94.63
1352.00,95.10
1351.00,95.49
1350.00,95.82
1349.00,96.09
1348.00,96.31
1347.00,96.50
1346.00,96.66
1345.00,96.79
1344.00,96.90
1343.00,96.98
1342.00,97.06
1341.00,97.11
1340.00,97.15
1339.00,97.17
1338.00,97.18
1337.00,97.17
1336.00,97.15
1335.00,97.12
1334.00,97.06
1333.00,96.99
1332.00,96.92
1331.00,96.88
1330.00,96.87
1329.00,96.90
1328.00,96.96
1327.00,97.04
1326.00,97.14
1325.00,97.25
1324.00,97.36
1323.00,97.46
1322.00,97.54
1321.00,97.60
1320.00,97.65
1319.00,97.70
1318.00,97.74
1317.00,97.78
1316.00,97.82
1315.00,97.84
1314.00,97.85
1313.00,97.84
1312.00,97.81
1311.00,97.76
1310.00,97.67
1309.00,97.52
1308.00,97.32
1307.00,97.08
1306.00,96.86
1305.00,96.70
1304.00,96.66
1303.00,96.72
1302.00,96.84
1301.00,96.95
1300.00,97.02
1299.00,97.06
1298.00,97.07
1297.00,97.08
1296.00,97.11
1295.00,97.15
1294.00,97.22
1293.00,97.31
1292.00,97.40
1291.00,97.49
1290.00,97.58
1289.00,97.65
1288.00,97.71
1287.00,97.76
1286.00,97.80
1285.00,97.85
1284.00,97.88
1283.00,97.92
1282.00,97.95
1281.00,97.98
1280.00,98.01
1279.00,98.03
1278.00,98.05
1277.00,98.06
1276.00,98.08
1275.00,98.09
1274.00,98.10
1273.00,98.12
1272.00,98.12
1271.00,98.13
1270.00,98.13
1269.00,98.12
1268.00,98.11
1267.00,98.10
1266.00,98.08
1265.00,98.05
1264.00,98.02
1263.00,97.97
1262.00,97.90
1261.00,97.80
1260.00,97.68
1259.00,97.53
1258.00,97.38
1257.00,97.26
1256.00,97.23
1255.00,97.28
1254.00,97.41
1253.00,97.60
1252.00,97.79
1251.00,97.96
1250.00,98.10
1249.00,98.20
1248.00,98.29
1247.00,98.36
1246.00,98.41
1245.00,98.46
1244.00,98.50
1243.00,98.53
1242.00,98.56
1241.00,98.57
1240.00,98.58
1239.00,98.59
1238.00,98.59
1237.00,98.59
1236.00,98.60
1235.00,98.59
1234.00,98.58
1233.00,98.57
1232.00,98.55
1231.00,98.54
1230.00,98.53
1229.00,98.51
1228.00,98.48
1227.00,98.44
1226.00,98.40
1225.00,98.36
1224.00,98.31
1223.00,98.26
1222.00,98.22
1221.00,98.18
1220.00,98.16
1219.00,98.15
1218.00,98.16
1217.00,98.19
1216.00,98.22
1215.00,98.26
1214.00,98.30
1213.00,98.34
1212.00,98.37
1211.00,98.39
1210.00,98.41
1209.00,98.43
1208.00,98.44
1207.00,98.45
1206.00,98.45
1205.00,98.46
1204.00,98.46
1203.00,98.46
1202.00,98.46
1201.00,98.46
1200.00,98.46
1199.00,98.46
1198.00,98.46
1197.00,98.46
1196.00,98.46
1195.00,98.47
1194.00,98.47
1193.00,98.46
1192.00,98.46
1191.00,98.46
1190.00,98.45
1189.00,98.45
1188.00,98.45
1187.00,98.44
1186.00,98.42
1185.00,98.39
1184.00,98.35
1183.00,98.29
1182.00,98.23
1181.00,98.15
1180.00,98.05
1179.00,97.90
1178.00,97.72
1177.00,97.48
1176.00,97.17
1175.00,96.77
1174.00,96.28
1173.00,95.70
1172.00,95.06
1171.00,94.42
1170.00,93.86
1169.00,93.47
1168.00,93.28
1167.00,93.29
1166.00,93.47
1165.00,93.75
1164.00,94.07
1163.00,94.38
1162.00,94.65
1161.00,94.88
1160.00,95.07
1159.00,95.21
1158.00,95.32
1157.00,95.41
1156.00,95.47
1155.00,95.52
1154.00,95.58
1153.00,95.67
1152.00,95.79
1151.00,95.96
1150.00,96.17
1149.00,96.39
1148.00,96.62
1147.00,96.84
1146.00,97.05
1145.00,97.24
1144.00,97.42
1143.00,97.57
1142.00,97.70
1141.00,97.81
1140.00,97.91
1139.00,98.00
1138.00,98.08
1137.00,98.14
1136.00,98.19
1135.00,98.23
1134.00,98.26
1133.00,98.29
1132.00,98.31
1131.00,98.32
1130.00,98.33
1129.00,98.35
1128.00,98.36
1127.00,98.36
1126.00,98.37
1125.00,98.37
1124.00,98.38
1123.00,98.37
1122.00,98.37
1121.00,98.36
1120.00,98.36
1119.00,98.35
1118.00,98.33
1117.00,98.31
1116.00,98.29
1115.00,98.27
1114.00,98.24
1113.00,98.22
1112.00,98.18
1111.00,98.13
1110.00,98.06
1109.00,97.97
1108.00,97.87
1107.00,97.75
1106.00,97.64
1105.00,97.54
1104.00,97.47
1103.00,97.44
1102.00,97.47
1101.00,97.53
1100.00,97.64
1099.00,97.75
1098.00,97.87
1097.00,97.96
1096.00,98.04
1095.00,98.10
1094.00,98.16
1093.00,98.20
1092.00,98.24
1091.00,98.27
1090.00,98.30
1089.00,98.32
1088.00,98.34
1087.00,98.36
1086.00,98.38
1085.00,98.40
1084.00,98.41
1083.00,98.41
1082.00,98.42
1081.00,98.42
1080.00,98.43
1079.00,98.43
1078.00,98.43
1077.00,98.43
1076.00,98.43
1075.00,98.43
1074.00,98.44
1073.00,98.44
1072.00,98.45
1071.00,98.45
1070.00,98.45
1069.00,98.45
1068.00,98.45
1067.00,98.45
1066.00,98.44
1065.00,98.44
1064.00,98.44
1063.00,98.44
1062.00,98.43
1061.00,98.43
1060.00,98.42
1059.00,98.41
1058.00,98.40
1057.00,98.38
1056.00,98.36
1055.00,98.34
1054.00,98.31
1053.00,98.29
1052.00,98.26
1051.00,98.22
1050.00,98.17
1049.00,98.10
1048.00,98.03
1047.00,97.96
1046.00,97.92
1045.00,97.91
1044.00,97.94
1043.00,97.98
1042.00,98.04
1041.00,98.09
1040.00,98.14
1039.00,98.16
1038.00,98.18
1037.00,98.20
1036.00,98.22
1035.00,98.23
1034.00,98.24
1033.00,98.26
1032.00,98.27
1031.00,98.29
1030.00,98.30
1029.00,98.31
1028.00,98.31
1027.00,98.32
1026.00,98.31
1025.00,98.30
1024.00,98.29
1023.00,98.28
1022.00,98.26
1021.00,98.25
1020.00,98.23
1019.00,98.21
1018.00,98.18
1017.00,98.15
1016.00,98.11
1015.00,98.07
1014.00,98.02
1013.00,97.96
1012.00,97.89
1011.00,97.80
1010.00,97.70
1009.00,97.59
1008.00,97.45
1007.00,97.26
1006.00,97.02
1005.00,96.69
1004.00,96.24
1003.00,95.65
1002.00,94.89
1001.00,94.01
1000.00,93.12
999.00,92.44
998.00,92.15
997.00,92.36
996.00,92.98
995.00,93.83
994.00,94.71
993.00,95.47
992.00,96.06
991.00,96.49
990.00,96.80
989.00,97.02
988.00,97.16
987.00,97.23
986.00,97.25
985.00,97.20
984.00,97.09
983.00,96.89
982.00,96.59
981.00,96.16
980.00,95.58
979.00,94.84
978.00,93.96
977.00,92.97
976.00,91.95
975.00,91.06
974.00,90.49
973.00,90.39
972.00,90.83
971.00,91.71
970.00,92.82
969.00,93.91
968.00,94.84
967.00,95.56
966.00,96.08
965.00,96.45
964.00,96.74
963.00,96.96
962.00,97.15
961.00,97.30
960.00,97.44
959.00,97.57
958.00,97.68
957.00,97.77
956.00,97.85
955.00,97.92
954.00,97.97
953.00,98.02
952.00,98.05
951.00,98.08
950.00,98.10
949.00,98.11
948.00,98.11
947.00,98.09
946.00,98.06
945.00,98.02
944.00,97.97
943.00,97.92
942.00,97.88
941.00,97.87
940.00,97.89
939.00,97.95
938.00,98.03
937.00,98.13
936.00,98.21
935.00,98.28
934.00,98.34
933.00,98.39
932.00,98.43
931.00,98.45
930.00,98.47
929.00,98.48
928.00,98.49
927.00,98.49
926.00,98.49
925.00,98.50
924.00,98.50
923.00,98.49
922.00,98.48
921.00,98.47
920.00,98.46
919.00,98.45
918.00,98.45
917.00,98.44
916.00,98.42
915.00,98.40
914.00,98.38
913.00,98.36
912.00,98.33
911.00,98.30
910.00,98.25
909.00,98.19
908.00,98.09
907.00,97.94
906.00,97.74
905.00,97.47
904.00,97.14
903.00,96.76
902.00,96.38
901.00,96.06
900.00,95.86
899.00,95.82
898.00,95.94
897.00,96.18
896.00,96.46
895.00,96.70
894.00,96.85
893.00,96.87
892.00,96.78
891.00,96.61
890.00,96.40
889.00,96.21
888.00,96.10
887.00,96.12
886.00,96.27
885.00,96.51
884.00,96.79
883.00,97.07
882.00,97.31
881.00,97.51
880.00,97.67
879.00,97.78
878.00,97.86
877.00,97.91
876.00,97.95
875.00,97.98
874.00,98.00
873.00,98.03
872.00,98.04
871.00,98.03
870.00,98.02
869.00,98.01
868.00,98.01
867.00,98.00
866.00,97.98
865.00,97.97
864.00,97.96
863.00,97.95
862.00,97.93
861.00,97.91
860.00,97.88
859.00,97.84
858.00,97.80
857.00,97.77
856.00,97.73
855.00,97.69
854.00,97.62
853.00,97.55
852.00,97.47
851.00,97.36
850.00,97.22
849.00,97.02
848.00,96.73
847.00,96.31
846.00,95.69
845.00,94.82
844.00,93.76
843.00,92.72
842.00,92.08
841.00,92.11
840.00,92.80
839.00,93.87
838.00,94.94
837.00,95.76
836.00,96.31
835.00,96.64
834.00,96.86
833.00,97.01
832.00,97.15
831.00,97.26
830.00,97.34
829.00,97.39
828.00,97.43
827.00,97.46
826.00,97.50
825.00,97.53
824.00,97.57
823.00,97.58
822.00,97.56
821.00,97.52
820.00,97.48
819.00,97.41
818.00,97.32
817.00,97.18
816.00,96.98
815.00,96.73
814.00,96.42
813.00,96.08
812.00,95.74
811.00,95.46
810.00,95.29
809.00,95.26
808.00,95.38
807.00,95.63
806.00,95.96
805.00,96.31
804.00,96.62
803.00,96.89
802.00,97.09
801.00,97.25
800.00,97.39
799.00,97.50
798.00,97.61
797.00,97.70
796.00,97.78
795.00,97.86
794.00,97.93
793.00,97.99
792.00,98.05
791.00,98.12
790.00,98.18
789.00,98.24
788.00,98.29
787.00,98.34
786.00,98.39
785.00,98.43
784.00,98.48
783.00,98.52
782.00,98.56
781.00,98.58
780.00,98.59
779.00,98.60
778.00,98.62
777.00,98.64
776.00,98.66
775.00,98.68
774.00,98.68
773.00,98.68
772.00,98.66
771.00,98.65
770.00,98.64
769.00,98.64
768.00,98.65
767.00,98.65
766.00,98.65
765.00,98.65
764.00,98.67
763.00,98.70
762.00,98.72
761.00,98.73
760.00,98.74
759.00,98.73
758.00,98.73
757.00,98.72
756.00,98.72
755.00,98.72
754.00,98.73
753.00,98.74
752.00,98.75
751.00,98.76
750.00,98.76
749.00,98.75
748.00,98.74
747.00,98.73
746.00,98.71
745.00,98.70
744.00,98.70
743.00,98.70
742.00,98.70
741.00,98.68
740.00,98.67
739.00,98.66
738.00,98.66
737.00,98.66
736.00,98.67
735.00,98.68
734.00,98.70
733.00,98.72
732.00,98.73
731.00,98.75
730.00,98.75
729.00,98.76
728.00,98.76
727.00,98.76
726.00,98.76
725.00,98.77
724.00,98.77
723.00,98.78
722.00,98.78
721.00,98.78
720.00,98.79
719.00,98.79
718.00,98.79
717.00,98.79
716.00,98.79
715.00,98.79
714.00,98.79
713.00,98.79
712.00,98.79
711.00,98.79
710.00,98.78
709.00,98.75
708.00,98.72
707.00,98.70
706.00,98.71
705.00,98.72
704.00,98.74
703.00,98.76
702.00,98.78
701.00,98.78
700.00,98.79
699.00,98.78
698.00,98.78
697.00,98.78
696.00,98.79
695.00,98.81
694.00,98.83
693.00,98.84
692.00,98.85
691.00,98.85
690.00,98.84
689.00,98.83
688.00,98.83
687.00,98.84
686.00,98.86
685.00,98.87
684.00,98.88
683.00,98.87
682.00,98.86
681.00,98.87
680.00,98.88
679.00,98.87
678.00,98.85
677.00,98.85
676.00,98.86
675.00,98.88
674.00,98.88
673.00,98.86
672.00,98.85
671.00,98.87
670.00,98.90
669.00,98.95
668.00,98.96
667.00,98.87
666.00,98.79
665.00,98.79
664.00,98.83
663.00,98.85
662.00,98.87
661.00,98.87
660.00,98.89
659.00,98.86
658.00,98.82
657.00,98.84
656.00,98.85
655.00,98.86
654.00,98.86
653.00,98.86
652.00,98.86
651.00,98.84
650.00,98.80
