Created as New Dataset,PP amporphous Sigma
cm-1,%T
4000.00,99.82
3999.00,99.82
3998.00,99.82
3997.00,99.82
3996.00,99.82
3995.00,99.82
3994.00,99.82
3993.00,99.82
3992.00,99.83
3991.00,99.83
3990.00,99.83
3989.00,99.84
3988.00,99.84
3987.00,99.84
3986.00,99.84
3985.00,99.84
3984.00,99.85
3983.00,99.85
3982.00,99.85
3981.00,99.85
3980.00,99.85
3979.00,99.84
3978.00,99.85
3977.00,99.85
3976.00,99.85
3975.00,99.85
3974.00,99.85
3973.00,99.86
3972.00,99.86
3971.00,99.86
3970.00,99.86
3969.00,99.86
3968.00,99.86
3967.00,99.86
3966.00,99.86
3965.00,99.86
3964.00,99.86
3963.00,99.86
3962.00,99.86
3961.00,99.86
3960.00,99.86
3959.00,99.86
3958.00,99.86
3957.00,99.86
3956.00,99.86
3955.00,99.86
3954.00,99.86
3953.00,99.86
3952.00,99.86
3951.00,99.86
3950.00,99.86
3949.00,99.86
3948.00,99.86
3947.00,99.86
3946.00,99.86
3945.00,99.86
3944.00,99.86
3943.00,99.86
3942.00,99.86
3941.00,99.86
3940.00,99.85
3939.00,99.85
3938.00,99.84
3937.00,99.84
3936.00,99.85
3935.00,99.85
3934.00,99.85
3933.00,99.85
3932.00,99.85
3931.00,99.85
3930.00,99.85
3929.00,99.85
3928.00,99.85
3927.00,99.85
3926.00,99.84
3925.00,99.84
3924.00,99.84
3923.00,99.84
3922.00,99.84
3921.00,99.84
3920.00,99.85
3919.00,99.84
3918.00,99.84
3917.00,99.84
3916.00,99.85
3915.00,99.85
3914.00,99.85
3913.00,99.85
3912.00,99.85
3911.00,99.85
3910.00,99.84
3909.00,99.85
3908.00,99.85
3907.00,99.85
3906.00,99.85
3905.00,99.84
3904.00,99.84
3903.00,99.84
3902.00,99.84
3901.00,99.84
3900.00,99.84
3899.00,99.84
3898.00,99.85
3897.00,99.85
3896.00,99.85
3895.00,99.85
3894.00,99.85
3893.00,99.85
3892.00,99.85
3891.00,99.85
3890.00,99.86
3889.00,99.86
3888.00,99.85
3887.00,99.85
3886.00,99.85
3885.00,99.85
3884.00,99.85
3883.00,99.84
3882.00,99.84
3881.00,99.85
3880.00,99.85
3879.00,99.85
3878.00,99.85
3877.00,99.85
3876.00,99.85
3875.00,99.85
3874.00,99.85
3873.00,99.85
3872.00,99.85
3871.00,99.86
3870.00,99.86
3869.00,99.86
3868.00,99.86
3867.00,99.85
3866.00,99.85
3865.00,99.86
3864.00,99.86
3863.00,99.86
3862.00,99.85
3861.00,99.85
3860.00,99.85
3859.00,99.86
3858.00,99.86
3857.00,99.86
3856.00,99.85
3855.00,99.85
3854.00,99.85
3853.00,99.86
3852.00,99.86
3851.00,99.86
3850.00,99.86
3849.00,99.86
3848.00,99.86
3847.00,99.86
3846.00,99.86
3845.00,99.86
3844.00,99.86
3843.00,99.86
3842.00,99.85
3841.00,99.85
3840.00,99.85
3839.00,99.85
3838.00,99.85
3837.00,99.86
3836.00,99.86
3835.00,99.86
3834.00,99.86
3833.00,99.86
3832.00,99.86
3831.00,99.86
3830.00,99.86
3829.00,99.86
3828.00,99.86
3827.00,99.86
3826.00,99.86
3825.00,99.86
3824.00,99.86
3823.00,99.86
3822.00,99.86
3821.00,99.87
3820.00,99.87
3819.00,99.87
3818.00,99.86
3817.00,99.86
3816.00,99.86
3815.00,99.87
3814.00,99.87
3813.00,99.87
3812.00,99.87
3811.00,99.87
3810.00,99.86
3809.00,99.86
3808.00,99.86
3807.00,99.86
3806.00,99.87
3805.00,99.86
3804.00,99.86
3803.00,99.85
3802.00,99.85
3801.00,99.85
3800.00,99.86
3799.00,99.86
3798.00,99.86
3797.00,99.86
3796.00,99.86
3795.00,99.86
3794.00,99.85
3793.00,99.85
3792.00,99.85
3791.00,99.85
3790.00,99.85
3789.00,99.86
3788.00,99.86
3787.00,99.86
3786.00,99.86
3785.00,99.86
3784.00,99.86
3783.00,99.86
3782.00,99.86
3781.00,99.86
3780.00,99.86
3779.00,99.86
3778.00,99.87
3777.00,99.87
3776.00,99.87
3775.00,99.87
3774.00,99.87
3773.00,99.86
3772.00,99.86
3771.00,99.86
3770.00,99.86
3769.00,99.85
3768.00,99.85
3767.00,99.85
3766.00,99.85
3765.00,99.85
3764.00,99.85
3763.00,99.85
3762.00,99.85
3761.00,99.85
3760.00,99.85
3759.00,99.85
3758.00,99.85
3757.00,99.85
3756.00,99.85
3755.00,99.85
3754.00,99.85
3753.00,99.85
3752.00,99.85
3751.00,99.85
3750.00,99.86
3749.00,99.86
3748.00,99.86
3747.00,99.86
3746.00,99.86
3745.00,99.86
3744.00,99.86
3743.00,99.86
3742.00,99.86
3741.00,99.86
3740.00,99.86
3739.00,99.85
3738.00,99.85
3737.00,99.86
3736.00,99.86
3735.00,99.86
3734.00,99.86
3733.00,99.86
3732.00,99.86
3731.00,99.87
3730.00,99.87
3729.00,99.87
3728.00,99.87
3727.00,99.86
3726.00,99.86
3725.00,99.86
3724.00,99.86
3723.00,99.87
3722.00,99.87
3721.00,99.88
3720.00,99.88
3719.00,99.88
3718.00,99.88
3717.00,99.88
3716.00,99.88
3715.00,99.88
3714.00,99.88
3713.00,99.88
3712.00,99.88
3711.00,99.87
3710.00,99.87
3709.00,99.87
3708.00,99.87
3707.00,99.87
3706.00,99.87
3705.00,99.88
3704.00,99.88
3703.00,99.88
3702.00,99.88
3701.00,99.88
3700.00,99.88
3699.00,99.88
3698.00,99.88
3697.00,99.88
3696.00,99.88
3695.00,99.88
3694.00,99.88
3693.00,99.88
3692.00,99.89
3691.00,99.89
3690.00,99.88
3689.00,99.88
3688.00,99.88
3687.00,99.88
3686.00,99.88
3685.00,99.88
3684.00,99.88
3683.00,99.88
3682.00,99.88
3681.00,99.88
3680.00,99.89
3679.00,99.89
3678.00,99.88
3677.00,99.88
3676.00,99.87
3675.00,99.87
3674.00,99.88
3673.00,99.88
3672.00,99.88
3671.00,99.89
3670.00,99.89
3669.00,99.90
3668.00,99.90
3667.00,99.90
3666.00,99.90
3665.00,99.90
3664.00,99.90
3663.00,99.90
3662.00,99.90
3661.00,99.90
3660.00,99.90
3659.00,99.89
3658.00,99.89
3657.00,99.88
3656.00,99.88
3655.00,99.88
3654.00,99.87
3653.00,99.86
3652.00,99.86
3651.00,99.86
3650.00,99.86
3649.00,99.86
3648.00,99.86
3647.00,99.86
3646.00,99.87
3645.00,99.87
3644.00,99.87
3643.00,99.88
3642.00,99.88
3641.00,99.88
3640.00,99.88
3639.00,99.88
3638.00,99.88
3637.00,99.88
3636.00,99.87
3635.00,99.87
3634.00,99.87
3633.00,99.87
3632.00,99.88
3631.00,99.88
3630.00,99.88
3629.00,99.88
3628.00,99.88
3627.00,99.88
3626.00,99.87
3625.00,99.87
3624.00,99.87
3623.00,99.87
3622.00,99.88
3621.00,99.88
3620.00,99.88
3619.00,99.88
3618.00,99.87
3617.00,99.87
3616.00,99.87
3615.00,99.87
3614.00,99.87
3613.00,99.87
3612.00,99.87
3611.00,99.87
3610.00,99.87
3609.00,99.87
3608.00,99.87
3607.00,99.87
3606.00,99.87
3605.00,99.87
3604.00,99.87
3603.00,99.87
3602.00,99.87
3601.00,99.87
3600.00,99.87
3599.00,99.87
3598.00,99.86
3597.00,99.86
3596.00,99.85
3595.00,99.85
3594.00,99.86
3593.00,99.86
3592.00,99.86
3591.00,99.86
3590.00,99.86
3589.00,99.86
3588.00,99.86
3587.00,99.86
3586.00,99.85
3585.00,99.85
3584.00,99.85
3583.00,99.85
3582.00,99.85
3581.00,99.85
3580.00,99.85
3579.00,99.85
3578.00,99.85
3577.00,99.85
3576.00,99.84
3575.00,99.84
3574.00,99.84
3573.00,99.84
3572.00,99.84
3571.00,99.84
3570.00,99.84
3569.00,99.83
3568.00,99.83
3567.00,99.84
3566.00,99.84
3565.00,99.84
3564.00,99.85
3563.00,99.85
3562.00,99.85
3561.00,99.85
3560.00,99.85
3559.00,99.84
3558.00,99.84
3557.00,99.84
3556.00,99.83
3555.00,99.83
3554.00,99.83
3553.00,99.84
3552.00,99.84
3551.00,99.84
3550.00,99.83
3549.00,99.83
3548.00,99.83
3547.00,99.83
3546.00,99.82
3545.00,99.82
3544.00,99.82
3543.00,99.82
3542.00,99.82
3541.00,99.83
3540.00,99.83
3539.00,99.83
3538.00,99.83
3537.00,99.83
3536.00,99.83
3535.00,99.83
3534.00,99.83
3533.00,99.83
3532.00,99.83
3531.00,99.83
3530.00,99.83
3529.00,99.83
3528.00,99.83
3527.00,99.83
3526.00,99.83
3525.00,99.83
3524.00,99.82
3523.00,99.82
3522.00,99.82
3521.00,99.82
3520.00,99.82
3519.00,99.82
3518.00,99.82
3517.00,99.82
3516.00,99.82
3515.00,99.82
3514.00,99.82
3513.00,99.82
3512.00,99.82
3511.00,99.82
3510.00,99.82
3509.00,99.82
3508.00,99.82
3507.00,99.82
3506.00,99.82
3505.00,99.82
3504.00,99.82
3503.00,99.82
3502.00,99.82
3501.00,99.82
3500.00,99.82
3499.00,99.82
3498.00,99.81
3497.00,99.81
3496.00,99.80
3495.00,99.80
3494.00,99.80
3493.00,99.80
3492.00,99.80
3491.00,99.81
3490.00,99.81
3489.00,99.81
3488.00,99.81
3487.00,99.81
3486.00,99.81
3485.00,99.81
3484.00,99.81
3483.00,99.81
3482.00,99.81
3481.00,99.81
3480.00,99.81
3479.00,99.80
3478.00,99.80
3477.00,99.80
3476.00,99.80
3475.00,99.80
3474.00,99.80
3473.00,99.80
3472.00,99.80
3471.00,99.80
3470.00,99.80
3469.00,99.80
3468.00,99.80
3467.00,99.79
3466.00,99.80
3465.00,99.80
3464.00,99.80
3463.00,99.80
3462.00,99.80
3461.00,99.79
3460.00,99.79
3459.00,99.78
3458.00,99.79
3457.00,99.79
3456.00,99.79
3455.00,99.78
3454.00,99.78
3453.00,99.78
3452.00,99.77
3451.00,99.78
3450.00,99.78
3449.00,99.78
3448.00,99.78
3447.00,99.78
3446.00,99.77
3445.00,99.77
3444.00,99.78
3443.00,99.78
3442.00,99.78
3441.00,99.78
3440.00,99.78
3439.00,99.78
3438.00,99.78
3437.00,99.79
3436.00,99.79
3435.00,99.78
3434.00,99.78
3433.00,99.78
3432.00,99.78
3431.00,99.78
3430.00,99.79
3429.00,99.79
3428.00,99.78
3427.00,99.78
3426.00,99.78
3425.00,99.77
3424.00,99.77
3423.00,99.76
3422.00,99.76
3421.00,99.76
3420.00,99.76
3419.00,99.76
3418.00,99.76
3417.00,99.77
3416.00,99.77
3415.00,99.77
3414.00,99.77
3413.00,99.77
3412.00,99.77
3411.00,99.77
3410.00,99.77
3409.00,99.76
3408.00,99.76
3407.00,99.76
3406.00,99.76
3405.00,99.76
3404.00,99.76
3403.00,99.76
3402.00,99.76
3401.00,99.77
3400.00,99.77
3399.00,99.77
3398.00,99.76
3397.00,99.76
3396.00,99.76
3395.00,99.76
3394.00,99.76
3393.00,99.76
3392.00,99.76
3391.00,99.75
3390.00,99.75
3389.00,99.75
3388.00,99.75
3387.00,99.75
3386.00,99.75
3385.00,99.75
3384.00,99.76
3383.00,99.76
3382.00,99.75
3381.00,99.75
3380.00,99.75
3379.00,99.75
3378.00,99.75
3377.00,99.75
3376.00,99.75
3375.00,99.75
3374.00,99.75
3373.00,99.74
3372.00,99.74
3371.00,99.74
3370.00,99.74
3369.00,99.74
3368.00,99.74
3367.00,99.75
3366.00,99.75
3365.00,99.75
3364.00,99.75
3363.00,99.75
3362.00,99.75
3361.00,99.75
3360.00,99.75
3359.00,99.75
3358.00,99.75
3357.00,99.74
3356.00,99.74
3355.00,99.74
3354.00,99.75
3353.00,99.75
3352.00,99.75
3351.00,99.75
3350.00,99.75
3349.00,99.74
3348.00,99.74
3347.00,99.74
3346.00,99.74
3345.00,99.74
3344.00,99.74
3343.00,99.75
3342.00,99.75
3341.00,99.75
3340.00,99.75
3339.00,99.75
3338.00,99.75
3337.00,99.75
3336.00,99.75
3335.00,99.75
3334.00,99.75
3333.00,99.75
3332.00,99.76
3331.00,99.76
3330.00,99.76
3329.00,99.76
3328.00,99.76
3327.00,99.76
3326.00,99.76
3325.00,99.76
3324.00,99.76
3323.00,99.76
3322.00,99.77
3321.00,99.77
3320.00,99.77
3319.00,99.77
3318.00,99.76
3317.00,99.76
3316.00,99.76
3315.00,99.76
3314.00,99.77
3313.00,99.77
3312.00,99.77
3311.00,99.77
3310.00,99.77
3309.00,99.77
3308.00,99.76
3307.00,99.76
3306.00,99.76
3305.00,99.76
3304.00,99.76
3303.00,99.76
3302.00,99.76
3301.00,99.76
3300.00,99.76
3299.00,99.76
3298.00,99.76
3297.00,99.76
3296.00,99.76
3295.00,99.76
3294.00,99.76
3293.00,99.76
3292.00,99.76
3291.00,99.77
3290.00,99.77
3289.00,99.77
3288.00,99.77
3287.00,99.77
3286.00,99.77
3285.00,99.77
3284.00,99.77
3283.00,99.77
3282.00,99.77
3281.00,99.77
3280.00,99.77
3279.00,99.77
3278.00,99.77
3277.00,99.77
3276.00,99.77
3275.00,99.77
3274.00,99.77
3273.00,99.77
3272.00,99.77
3271.00,99.77
3270.00,99.77
3269.00,99.77
3268.00,99.77
3267.00,99.77
3266.00,99.78
3265.00,99.78
3264.00,99.78
3263.00,99.77
3262.00,99.77
3261.00,99.76
3260.00,99.76
3259.00,99.76
3258.00,99.77
3257.00,99.77
3256.00,99.77
3255.00,99.77
3254.00,99.77
3253.00,99.77
3252.00,99.76
3251.00,99.76
3250.00,99.76
3249.00,99.77
3248.00,99.77
3247.00,99.76
3246.00,99.76
3245.00,99.76
3244.00,99.75
3243.00,99.75
3242.00,99.75
3241.00,99.76
3240.00,99.76
3239.00,99.76
3238.00,99.76
3237.00,99.76
3236.00,99.76
3235.00,99.76
3234.00,99.76
3233.00,99.75
3232.00,99.75
3231.00,99.74
3230.00,99.74
3229.00,99.74
3228.00,99.74
3227.00,99.74
3226.00,99.73
3225.00,99.73
3224.00,99.72
3223.00,99.72
3222.00,99.71
3221.00,99.71
3220.00,99.71
3219.00,99.70
3218.00,99.70
3217.00,99.70
3216.00,99.69
3215.00,99.69
3214.00,99.69
3213.00,99.68
3212.00,99.68
3211.00,99.67
3210.00,99.67
3209.00,99.66
3208.00,99.66
3207.00,99.65
3206.00,99.65
3205.00,99.64
3204.00,99.64
3203.00,99.64
3202.00,99.64
3201.00,99.63
3200.00,99.63
3199.00,99.62
3198.00,99.62
3197.00,99.61
3196.00,99.61
3195.00,99.61
3194.00,99.60
3193.00,99.60
3192.00,99.60
3191.00,99.59
3190.00,99.59
3189.00,99.59
3188.00,99.59
3187.00,99.59
3186.00,99.59
3185.00,99.59
3184.00,99.59
3183.00,99.59
3182.00,99.58
3181.00,99.58
3180.00,99.58
3179.00,99.59
3178.00,99.59
3177.00,99.59
3176.00,99.58
3175.00,99.58
3174.00,99.58
3173.00,99.58
3172.00,99.58
3171.00,99.58
3170.00,99.58
3169.00,99.58
3168.00,99.58
3167.00,99.58
3166.00,99.58
3165.00,99.58
3164.00,99.58
3163.00,99.59
3162.00,99.59
3161.00,99.60
3160.00,99.60
3159.00,99.60
3158.00,99.60
3157.00,99.59
3156.00,99.59
3155.00,99.59
3154.00,99.60
3153.00,99.60
3152.00,99.60
3151.00,99.60
3150.00,99.60
3149.00,99.60
3148.00,99.60
3147.00,99.60
3146.00,99.60
3145.00,99.61
3144.00,99.61
3143.00,99.61
3142.00,99.61
3141.00,99.61
3140.00,99.61
3139.00,99.61
3138.00,99.61
3137.00,99.61
3136.00,99.61
3135.00,99.61
3134.00,99.61
3133.00,99.61
3132.00,99.62
3131.00,99.61
3130.00,99.61
3129.00,99.62
3128.00,99.62
3127.00,99.62
3126.00,99.63
3125.00,99.63
3124.00,99.63
3123.00,99.63
3122.00,99.63
3121.00,99.63
3120.00,99.64
3119.00,99.64
3118.00,99.64
3117.00,99.64
3116.00,99.64
3115.00,99.64
3114.00,99.64
3113.00,99.64
3112.00,99.64
3111.00,99.64
3110.00,99.64
3109.00,99.64
3108.00,99.64
3107.00,99.64
3106.00,99.65
3105.00,99.65
3104.00,99.65
3103.00,99.65
3102.00,99.64
3101.00,99.64
3100.00,99.64
3099.00,99.64
3098.00,99.64
3097.00,99.64
3096.00,99.64
3095.00,99.64
3094.00,99.64
3093.00,99.64
3092.00,99.64
3091.00,99.63
3090.00,99.63
3089.00,99.63
3088.00,99.62
3087.00,99.62
3086.00,99.62
3085.00,99.61
3084.00,99.60
3083.00,99.60
3082.00,99.59
3081.00,99.59
3080.00,99.59
3079.00,99.58
3078.00,99.58
3077.00,99.58
3076.00,99.57
3075.00,99.57
3074.00,99.57
3073.00,99.58
3072.00,99.58
3071.00,99.58
3070.00,99.58
3069.00,99.58
3068.00,99.58
3067.00,99.58
3066.00,99.58
3065.00,99.58
3064.00,99.58
3063.00,99.57
3062.00,99.57
3061.00,99.58
3060.00,99.58
3059.00,99.58
3058.00,99.58
3057.00,99.57
3056.00,99.57
3055.00,99.57
3054.00,99.56
3053.00,99.56
3052.00,99.55
3051.00,99.55
3050.00,99.54
3049.00,99.54
3048.00,99.54
3047.00,99.54
3046.00,99.53
3045.00,99.53
3044.00,99.52
3043.00,99.51
3042.00,99.51
3041.00,99.50
3040.00,99.50
3039.00,99.49
3038.00,99.48
3037.00,99.47
3036.00,99.46
3035.00,99.45
3034.00,99.44
3033.00,99.43
3032.00,99.42
3031.00,99.41
3030.00,99.40
3029.00,99.38
3028.00,99.37
3027.00,99.36
3026.00,99.35
3025.00,99.34
3024.00,99.33
3023.00,99.31
3022.00,99.30
3021.00,99.28
3020.00,99.26
3019.00,99.24
3018.00,99.23
3017.00,99.20
3016.00,99.18
3015.00,99.16
3014.00,99.13
3013.00,99.10
3012.00,99.07
3011.00,99.04
3010.00,99.01
3009.00,98.98
3008.00,98.94
3007.00,98.91
3006.00,98.87
3005.00,98.82
3004.00,98.77
3003.00,98.71
3002.00,98.65
3001.00,98.59
3000.00,98.52
2999.00,98.45
2998.00,98.37
2997.00,98.28
2996.00,98.18
2995.00,98.07
2994.00,97.96
2993.00,97.83
2992.00,97.69
2991.00,97.53
2990.00,97.36
2989.00,97.16
2988.00,96.95
2987.00,96.71
2986.00,96.44
2985.00,96.15
2984.00,95.83
2983.00,95.46
2982.00,95.06
2981.00,94.61
2980.00,94.11
2979.00,93.54
2978.00,92.92
2977.00,92.22
2976.00,91.44
2975.00,90.56
2974.00,89.60
2973.00,88.53
2972.00,87.36
2971.00,86.09
2970.00,84.73
2969.00,83.27
2968.00,81.73
2967.00,80.13
2966.00,78.49
2965.00,76.87
2964.00,75.28
2963.00,73.80
2962.00,72.45
2961.00,71.28
2960.00,70.33
2959.00,69.58
2958.00,69.02
2957.00,68.62
2956.00,68.35
2955.00,68.18
2954.00,68.13
2953.00,68.20
2952.00,68.45
2951.00,68.93
2950.00,69.71
2949.00,70.81
2948.00,72.24
2947.00,73.91
2946.00,75.72
2945.00,77.50
2944.00,79.13
2943.00,80.49
2942.00,81.52
2941.00,82.21
2940.00,82.57
2939.00,82.63
2938.00,82.43
2937.00,81.97
2936.00,81.30
2935.00,80.44
2934.00,79.41
2933.00,78.26
2932.00,77.03
2931.00,75.76
2930.00,74.52
2929.00,73.37
2928.00,72.34
2927.00,71.47
2926.00,70.74
2925.00,70.12
2924.00,69.56
2923.00,68.99
2922.00,68.39
2921.00,67.71
2920.00,66.98
2919.00,66.22
2918.00,65.48
2917.00,64.83
2916.00,64.29
2915.00,63.91
2914.00,63.70
2913.00,63.66
2912.00,63.79
2911.00,64.06
2910.00,64.46
2909.00,64.96
2908.00,65.56
2907.00,66.23
2906.00,66.97
2905.00,67.75
2904.00,68.58
2903.00,69.44
2902.00,70.33
2901.00,71.25
2900.00,72.19
2899.00,73.14
2898.00,74.10
2897.00,75.04
2896.00,75.96
2895.00,76.84
2894.00,77.66
2893.00,78.42
2892.00,79.10
2891.00,79.70
2890.00,80.21
2889.00,80.64
2888.00,80.99
2887.00,81.25
2886.00,81.44
2885.00,81.57
2884.00,81.64
2883.00,81.66
2882.00,81.65
2881.00,81.61
2880.00,81.58
2879.00,81.53
2878.00,81.48
2877.00,81.40
2876.00,81.26
2875.00,81.03
2874.00,80.71
2873.00,80.31
2872.00,79.88
2871.00,79.49
2870.00,79.23
2869.00,79.21
2868.00,79.51
2867.00,80.17
2866.00,81.18
2865.00,82.45
2864.00,83.87
2863.00,85.29
2862.00,86.59
2861.00,87.69
2860.00,88.57
2859.00,89.21
2858.00,89.63
2857.00,89.86
2856.00,89.91
2855.00,89.80
2854.00,89.55
2853.00,89.17
2852.00,88.69
2851.00,88.14
2850.00,87.54
2849.00,86.93
2848.00,86.33
2847.00,85.73
2846.00,85.14
2845.00,84.56
2844.00,84.00
2843.00,83.48
2842.00,83.03
2841.00,82.68
2840.00,82.48
2839.00,82.48
2838.00,82.72
2837.00,83.24
2836.00,84.05
2835.00,85.13
2834.00,86.40
2833.00,87.78
2832.00,89.15
2831.00,90.43
2830.00,91.55
2829.00,92.48
2828.00,93.25
2827.00,93.86
2826.00,94.35
2825.00,94.75
2824.00,95.09
2823.00,95.37
2822.00,95.61
2821.00,95.82
2820.00,96.01
2819.00,96.17
2818.00,96.32
2817.00,96.46
2816.00,96.58
2815.00,96.70
2814.00,96.81
2813.00,96.92
2812.00,97.03
2811.00,97.13
2810.00,97.23
2809.00,97.33
2808.00,97.42
2807.00,97.52
2806.00,97.62
2805.00,97.71
2804.00,97.81
2803.00,97.89
2802.00,97.97
2801.00,98.04
2800.00,98.11
2799.00,98.17
2798.00,98.22
2797.00,98.28
2796.00,98.32
2795.00,98.37
2794.00,98.41
2793.00,98.45
2792.00,98.49
2791.00,98.53
2790.00,98.57
2789.00,98.61
2788.00,98.65
2787.00,98.69
2786.00,98.72
2785.00,98.75
2784.00,98.78
2783.00,98.81
2782.00,98.84
2781.00,98.87
2780.00,98.89
2779.00,98.92
2778.00,98.94
2777.00,98.96
2776.00,98.98
2775.00,99.00
2774.00,99.02
2773.00,99.04
2772.00,99.05
2771.00,99.07
2770.00,99.08
2769.00,99.10
2768.00,99.11
2767.00,99.12
2766.00,99.13
2765.00,99.13
2764.00,99.14
2763.00,99.14
2762.00,99.15
2761.00,99.15
2760.00,99.15
2759.00,99.16
2758.00,99.16
2757.00,99.16
2756.00,99.16
2755.00,99.16
2754.00,99.16
2753.00,99.16
2752.00,99.16
2751.00,99.15
2750.00,99.14
2749.00,99.13
2748.00,99.13
2747.00,99.12
2746.00,99.10
2745.00,99.09
2744.00,99.08
2743.00,99.06
2742.00,99.04
2741.00,99.02
2740.00,99.00
2739.00,98.98
2738.00,98.95
2737.00,98.93
2736.00,98.90
2735.00,98.87
2734.00,98.84
2733.00,98.80
2732.00,98.77
2731.00,98.73
2730.00,98.70
2729.00,98.66
2728.00,98.63
2727.00,98.59
2726.00,98.57
2725.00,98.55
2724.00,98.55
2723.00,98.56
2722.00,98.57
2721.00,98.60
2720.00,98.63
2719.00,98.67
2718.00,98.71
2717.00,98.75
2716.00,98.79
2715.00,98.82
2714.00,98.86
2713.00,98.89
2712.00,98.92
2711.00,98.94
2710.00,98.97
2709.00,98.99
2708.00,99.01
2707.00,99.03
2706.00,99.04
2705.00,99.06
2704.00,99.08
2703.00,99.09
2702.00,99.10
2701.00,99.12
2700.00,99.13
2699.00,99.14
2698.00,99.15
2697.00,99.16
2696.00,99.17
2695.00,99.17
2694.00,99.18
2693.00,99.19
2692.00,99.19
2691.00,99.20
2690.00,99.20
2689.00,99.21
2688.00,99.21
2687.00,99.21
2686.00,99.21
2685.00,99.21
2684.00,99.22
2683.00,99.22
2682.00,99.23
2681.00,99.23
2680.00,99.23
2679.00,99.24
2678.00,99.24
2677.00,99.24
2676.00,99.24
2675.00,99.25
2674.00,99.25
2673.00,99.25
2672.00,99.25
2671.00,99.25
2670.00,99.25
2669.00,99.25
2668.00,99.26
2667.00,99.26
2666.00,99.26
2665.00,99.26
2664.00,99.26
2663.00,99.26
2662.00,99.26
2661.00,99.26
2660.00,99.26
2659.00,99.26
2658.00,99.26
2657.00,99.27
2656.00,99.27
2655.00,99.28
2654.00,99.28
2653.00,99.29
2652.00,99.29
2651.00,99.29
2650.00,99.29
2649.00,99.29
2648.00,99.29
2647.00,99.30
2646.00,99.30
2645.00,99.30
2644.00,99.31
2643.00,99.32
2642.00,99.32
2641.00,99.33
2640.00,99.33
2639.00,99.33
2638.00,99.34
2637.00,99.34
2636.00,99.35
2635.00,99.35
2634.00,99.35
2633.00,99.35
2632.00,99.35
2631.00,99.35
2630.00,99.35
2629.00,99.36
2628.00,99.36
2627.00,99.36
2626.00,99.35
2625.00,99.35
2624.00,99.35
2623.00,99.35
2622.00,99.34
2621.00,99.34
2620.00,99.34
2619.00,99.34
2618.00,99.34
2617.00,99.34
2616.00,99.34
2615.00,99.34
2614.00,99.34
2613.00,99.35
2612.00,99.35
2611.00,99.35
2610.00,99.36
2609.00,99.36
2608.00,99.36
2607.00,99.36
2606.00,99.36
2605.00,99.36
2604.00,99.36
2603.00,99.36
2602.00,99.36
2601.00,99.37
2600.00,99.37
2599.00,99.37
2598.00,99.37
2597.00,99.37
2596.00,99.37
2595.00,99.37
2594.00,99.36
2593.00,99.36
2592.00,99.36
2591.00,99.36
2590.00,99.35
2589.00,99.35
2588.00,99.35
2587.00,99.34
2586.00,99.34
2585.00,99.34
2584.00,99.35
2583.00,99.35
2582.00,99.35
2581.00,99.35
2580.00,99.35
2579.00,99.36
2578.00,99.36
2577.00,99.36
2576.00,99.36
2575.00,99.36
2574.00,99.36
2573.00,99.37
2572.00,99.37
2571.00,99.37
2570.00,99.37
2569.00,99.37
2568.00,99.38
2567.00,99.38
2566.00,99.38
2565.00,99.39
2564.00,99.39
2563.00,99.40
2562.00,99.41
2561.00,99.42
2560.00,99.42
2559.00,99.43
2558.00,99.43
2557.00,99.44
2556.00,99.45
2555.00,99.46
2554.00,99.47
2553.00,99.48
2552.00,99.49
2551.00,99.50
2550.00,99.51
2549.00,99.52
2548.00,99.53
2547.00,99.54
2546.00,99.55
2545.00,99.55
2544.00,99.56
2543.00,99.56
2542.00,99.57
2541.00,99.57
2540.00,99.57
2539.00,99.58
2538.00,99.58
2537.00,99.59
2536.00,99.59
2535.00,99.59
2534.00,99.59
2533.00,99.59
2532.00,99.59
2531.00,99.60
2530.00,99.60
2529.00,99.61
2528.00,99.61
2527.00,99.61
2526.00,99.62
2525.00,99.62
2524.00,99.63
2523.00,99.63
2522.00,99.64
2521.00,99.64
2520.00,99.65
2519.00,99.65
2518.00,99.65
2517.00,99.65
2516.00,99.66
2515.00,99.66
2514.00,99.67
2513.00,99.67
2512.00,99.68
2511.00,99.68
2510.00,99.68
2509.00,99.68
2508.00,99.68
2507.00,99.68
2506.00,99.69
2505.00,99.69
2504.00,99.70
2503.00,99.70
2502.00,99.70
2501.00,99.71
2500.00,99.71
2499.00,99.70
2498.00,99.70
2497.00,99.70
2496.00,99.69
2495.00,99.69
2494.00,99.70
2493.00,99.70
2492.00,99.70
2491.00,99.71
2490.00,99.71
2489.00,99.71
2488.00,99.71
2487.00,99.71
2486.00,99.71
2485.00,99.72
2484.00,99.72
2483.00,99.72
2482.00,99.71
2481.00,99.71
2480.00,99.71
2479.00,99.71
2478.00,99.71
2477.00,99.71
2476.00,99.71
2475.00,99.71
2474.00,99.70
2473.00,99.70
2472.00,99.70
2471.00,99.70
2470.00,99.70
2469.00,99.70
2468.00,99.70
2467.00,99.70
2466.00,99.70
2465.00,99.70
2464.00,99.70
2463.00,99.70
2462.00,99.70
2461.00,99.70
2460.00,99.70
2459.00,99.70
2458.00,99.70
2457.00,99.70
2456.00,99.69
2455.00,99.69
2454.00,99.68
2453.00,99.68
2452.00,99.68
2451.00,99.67
2450.00,99.68
2449.00,99.68
2448.00,99.69
2447.00,99.69
2446.00,99.70
2445.00,99.69
2444.00,99.69
2443.00,99.69
2442.00,99.69
2441.00,99.69
2440.00,99.69
2439.00,99.69
2438.00,99.69
2437.00,99.69
2436.00,99.69
2435.00,99.69
2434.00,99.69
2433.00,99.68
2432.00,99.68
2431.00,99.68
2430.00,99.68
2429.00,99.68
2428.00,99.68
2427.00,99.68
2426.00,99.68
2425.00,99.68
2424.00,99.68
2423.00,99.68
2422.00,99.68
2421.00,99.68
2420.00,99.68
2419.00,99.68
2418.00,99.68
2417.00,99.67
2416.00,99.67
2415.00,99.67
2414.00,99.67
2413.00,99.67
2412.00,99.67
2411.00,99.67
2410.00,99.67
2409.00,99.67
2408.00,99.67
2407.00,99.67
2406.00,99.68
2405.00,99.68
2404.00,99.68
2403.00,99.68
2402.00,99.68
2401.00,99.67
2400.00,99.67
2399.00,99.67
2398.00,99.67
2397.00,99.67
2396.00,99.67
2395.00,99.67
2394.00,99.67
2393.00,99.67
2392.00,99.67
2391.00,99.67
2390.00,99.68
2389.00,99.67
2388.00,99.67
2387.00,99.67
2386.00,99.67
2385.00,99.67
2384.00,99.67
2383.00,99.67
2382.00,99.67
2381.00,99.68
2380.00,99.68
2379.00,99.69
2378.00,99.69
2377.00,99.69
2376.00,99.69
2375.00,99.68
2374.00,99.68
2373.00,99.68
2372.00,99.69
2371.00,99.69
2370.00,99.69
2369.00,99.68
2368.00,99.67
2367.00,99.68
2366.00,99.69
2365.00,99.69
2364.00,99.69
2363.00,99.69
2362.00,99.68
2361.00,99.69
2360.00,99.69
2359.00,99.70
2358.00,99.70
2357.00,99.70
2356.00,99.70
2355.00,99.70
2354.00,99.70
2353.00,99.69
2352.00,99.69
2351.00,99.70
2350.00,99.70
2349.00,99.70
2348.00,99.70
2347.00,99.70
2346.00,99.69
2345.00,99.69
2344.00,99.69
2343.00,99.69
2342.00,99.70
2341.00,99.70
2340.00,99.70
2339.00,99.71
2338.00,99.72
2337.00,99.72
2336.00,99.71
2335.00,99.71
2334.00,99.71
2333.00,99.71
2332.00,99.71
2331.00,99.72
2330.00,99.73
2329.00,99.73
2328.00,99.72
2327.00,99.72
2326.00,99.72
2325.00,99.72
2324.00,99.72
2323.00,99.72
2322.00,99.71
2321.00,99.71
2320.00,99.70
2319.00,99.71
2318.00,99.71
2317.00,99.71
2316.00,99.72
2315.00,99.73
2314.00,99.73
2313.00,99.74
2312.00,99.74
2311.00,99.74
2310.00,99.74
2309.00,99.74
2308.00,99.74
2307.00,99.74
2306.00,99.74
2305.00,99.74
2304.00,99.74
2303.00,99.74
2302.00,99.75
2301.00,99.75
2300.00,99.75
2299.00,99.75
2298.00,99.75
2297.00,99.74
2296.00,99.74
2295.00,99.74
2294.00,99.74
2293.00,99.74
2292.00,99.74
2291.00,99.74
2290.00,99.75
2289.00,99.75
2288.00,99.74
2287.00,99.74
2286.00,99.74
2285.00,99.74
2284.00,99.74
2283.00,99.74
2282.00,99.75
2281.00,99.74
2280.00,99.74
2279.00,99.73
2278.00,99.73
2277.00,99.73
2276.00,99.73
2275.00,99.73
2274.00,99.73
2273.00,99.73
2272.00,99.73
2271.00,99.73
2270.00,99.73
2269.00,99.73
2268.00,99.73
2267.00,99.74
2266.00,99.74
2265.00,99.74
2264.00,99.74
2263.00,99.74
2262.00,99.74
2261.00,99.73
2260.00,99.73
2259.00,99.73
2258.00,99.72
2257.00,99.72
2256.00,99.72
2255.00,99.72
2254.00,99.72
2253.00,99.72
2252.00,99.72
2251.00,99.72
2250.00,99.72
2249.00,99.71
2248.00,99.72
2247.00,99.72
2246.00,99.73
2245.00,99.74
2244.00,99.74
2243.00,99.74
2242.00,99.74
2241.00,99.73
2240.00,99.73
2239.00,99.72
2238.00,99.72
2237.00,99.71
2236.00,99.72
2235.00,99.72
2234.00,99.73
2233.00,99.73
2232.00,99.74
2231.00,99.75
2230.00,99.75
2229.00,99.76
2228.00,99.75
2227.00,99.74
2226.00,99.73
2225.00,99.71
2224.00,99.71
2223.00,99.71
2222.00,99.72
2221.00,99.74
2220.00,99.75
2219.00,99.75
2218.00,99.75
2217.00,99.75
2216.00,99.75
2215.00,99.75
2214.00,99.74
2213.00,99.73
2212.00,99.73
2211.00,99.73
2210.00,99.73
2209.00,99.74
2208.00,99.74
2207.00,99.74
2206.00,99.74
2205.00,99.73
2204.00,99.73
2203.00,99.73
2202.00,99.72
2201.00,99.71
2200.00,99.70
2199.00,99.70
2198.00,99.71
2197.00,99.72
2196.00,99.73
2195.00,99.73
2194.00,99.74
2193.00,99.73
2192.00,99.72
2191.00,99.71
2190.00,99.70
2189.00,99.69
2188.00,99.69
2187.00,99.69
2186.00,99.70
2185.00,99.69
2184.00,99.69
2183.00,99.69
2182.00,99.70
2181.00,99.72
2180.00,99.73
2179.00,99.73
2178.00,99.72
2177.00,99.71
2176.00,99.71
2175.00,99.72
2174.00,99.73
2173.00,99.74
2172.00,99.74
2171.00,99.74
2170.00,99.73
2169.00,99.72
2168.00,99.72
2167.00,99.72
2166.00,99.72
2165.00,99.71
2164.00,99.70
2163.00,99.69
2162.00,99.68
2161.00,99.69
2160.00,99.72
2159.00,99.77
2158.00,99.81
2157.00,99.83
2156.00,99.83
2155.00,99.81
2154.00,99.79
2153.00,99.79
2152.00,99.80
2151.00,99.82
2150.00,99.83
2149.00,99.83
2148.00,99.81
2147.00,99.80
2146.00,99.80
2145.00,99.80
2144.00,99.80
2143.00,99.80
2142.00,99.80
2141.00,99.79
2140.00,99.78
2139.00,99.78
2138.00,99.78
2137.00,99.79
2136.00,99.79
2135.00,99.79
2134.00,99.80
2133.00,99.81
2132.00,99.82
2131.00,99.82
2130.00,99.82
2129.00,99.82
2128.00,99.81
2127.00,99.81
2126.00,99.80
2125.00,99.80
2124.00,99.79
2123.00,99.78
2122.00,99.78
2121.00,99.78
2120.00,99.78
2119.00,99.79
2118.00,99.80
2117.00,99.80
2116.00,99.80
2115.00,99.80
2114.00,99.79
2113.00,99.79
2112.00,99.79
2111.00,99.79
2110.00,99.78
2109.00,99.78
2108.00,99.78
2107.00,99.79
2106.00,99.79
2105.00,99.79
2104.00,99.78
2103.00,99.78
2102.00,99.78
2101.00,99.78
2100.00,99.79
2099.00,99.81
2098.00,99.82
2097.00,99.82
2096.00,99.82
2095.00,99.81
2094.00,99.81
2093.00,99.80
2092.00,99.79
2091.00,99.79
2090.00,99.80
2089.00,99.79
2088.00,99.79
2087.00,99.78
2086.00,99.78
2085.00,99.78
2084.00,99.79
2083.00,99.80
2082.00,99.81
2081.00,99.81
2080.00,99.81
2079.00,99.82
2078.00,99.83
2077.00,99.83
2076.00,99.83
2075.00,99.82
2074.00,99.82
2073.00,99.82
2072.00,99.82
2071.00,99.83
2070.00,99.83
2069.00,99.83
2068.00,99.83
2067.00,99.83
2066.00,99.83
2065.00,99.82
2064.00,99.81
2063.00,99.81
2062.00,99.81
2061.00,99.82
2060.00,99.82
2059.00,99.83
2058.00,99.83
2057.00,99.83
2056.00,99.83
2055.00,99.83
2054.00,99.83
2053.00,99.82
2052.00,99.82
2051.00,99.82
2050.00,99.83
2049.00,99.84
2048.00,99.84
2047.00,99.85
2046.00,99.86
2045.00,99.86
2044.00,99.85
2043.00,99.85
2042.00,99.84
2041.00,99.83
2040.00,99.82
2039.00,99.82
2038.00,99.82
2037.00,99.81
2036.00,99.80
2035.00,99.79
2034.00,99.78
2033.00,99.77
2032.00,99.78
2031.00,99.80
2030.00,99.82
2029.00,99.82
2028.00,99.83
2027.00,99.83
2026.00,99.84
2025.00,99.83
2024.00,99.83
2023.00,99.83
2022.00,99.84
2021.00,99.85
2020.00,99.85
2019.00,99.85
2018.00,99.83
2017.00,99.82
2016.00,99.82
2015.00,99.83
2014.00,99.85
2013.00,99.87
2012.00,99.87
2011.00,99.87
2010.00,99.86
2009.00,99.86
2008.00,99.87
2007.00,99.89
2006.00,99.90
2005.00,99.89
2004.00,99.87
2003.00,99.85
2002.00,99.83
2001.00,99.81
2000.00,99.81
1999.00,99.82
1998.00,99.83
1997.00,99.83
1996.00,99.83
1995.00,99.83
1994.00,99.83
1993.00,99.83
1992.00,99.82
1991.00,99.82
1990.00,99.81
1989.00,99.81
1988.00,99.80
1987.00,99.81
1986.00,99.82
1985.00,99.82
1984.00,99.82
1983.00,99.83
1982.00,99.84
1981.00,99.84
1980.00,99.85
1979.00,99.85
1978.00,99.85
1977.00,99.85
1976.00,99.85
1975.00,99.85
1974.00,99.84
1973.00,99.83
1972.00,99.82
1971.00,99.83
1970.00,99.85
1969.00,99.86
1968.00,99.86
1967.00,99.85
1966.00,99.84
1965.00,99.83
1964.00,99.83
1963.00,99.85
1962.00,99.86
1961.00,99.86
1960.00,99.85
1959.00,99.85
1958.00,99.84
1957.00,99.84
1956.00,99.84
1955.00,99.84
1954.00,99.84
1953.00,99.85
1952.00,99.85
1951.00,99.86
1950.00,99.87
1949.00,99.87
1948.00,99.88
1947.00,99.88
1946.00,99.88
1945.00,99.87
1944.00,99.86
1943.00,99.86
1942.00,99.85
1941.00,99.85
1940.00,99.85
1939.00,99.85
1938.00,99.86
1937.00,99.86
1936.00,99.85
1935.00,99.85
1934.00,99.85
1933.00,99.84
1932.00,99.84
1931.00,99.84
1930.00,99.84
1929.00,99.84
1928.00,99.83
1927.00,99.84
1926.00,99.84
1925.00,99.83
1924.00,99.82
1923.00,99.82
1922.00,99.82
1921.00,99.82
1920.00,99.82
1919.00,99.82
1918.00,99.82
1917.00,99.81
1916.00,99.81
1915.00,99.81
1914.00,99.81
1913.00,99.80
1912.00,99.80
1911.00,99.80
1910.00,99.81
1909.00,99.80
1908.00,99.79
1907.00,99.78
1906.00,99.78
1905.00,99.78
1904.00,99.79
1903.00,99.79
1902.00,99.80
1901.00,99.80
1900.00,99.80
1899.00,99.80
1898.00,99.81
1897.00,99.81
1896.00,99.80
1895.00,99.80
1894.00,99.80
1893.00,99.79
1892.00,99.79
1891.00,99.79
1890.00,99.79
1889.00,99.78
1888.00,99.78
1887.00,99.78
1886.00,99.78
1885.00,99.78
1884.00,99.78
1883.00,99.79
1882.00,99.79
1881.00,99.80
1880.00,99.80
1879.00,99.79
1878.00,99.79
1877.00,99.79
1876.00,99.79
1875.00,99.79
1874.00,99.78
1873.00,99.77
1872.00,99.77
1871.00,99.77
1870.00,99.78
1869.00,99.78
1868.00,99.78
1867.00,99.78
1866.00,99.77
1865.00,99.77
1864.00,99.77
1863.00,99.77
1862.00,99.78
1861.00,99.78
1860.00,99.78
1859.00,99.78
1858.00,99.78
1857.00,99.78
1856.00,99.78
1855.00,99.78
1854.00,99.78
1853.00,99.78
1852.00,99.78
1851.00,99.78
1850.00,99.77
1849.00,99.76
1848.00,99.76
1847.00,99.75
1846.00,99.75
1845.00,99.75
1844.00,99.75
1843.00,99.76
1842.00,99.77
1841.00,99.77
1840.00,99.77
1839.00,99.77
1838.00,99.77
1837.00,99.77
1836.00,99.76
1835.00,99.76
1834.00,99.76
1833.00,99.76
1832.00,99.76
1831.00,99.76
1830.00,99.76
1829.00,99.75
1828.00,99.75
1827.00,99.76
1826.00,99.76
1825.00,99.76
1824.00,99.77
1823.00,99.76
1822.00,99.76
1821.00,99.76
1820.00,99.76
1819.00,99.76
1818.00,99.76
1817.00,99.76
1816.00,99.76
1815.00,99.76
1814.00,99.76
1813.00,99.76
1812.00,99.76
1811.00,99.75
1810.00,99.75
1809.00,99.75
1808.00,99.75
1807.00,99.75
1806.00,99.75
1805.00,99.74
1804.00,99.74
1803.00,99.73
1802.00,99.73
1801.00,99.73
1800.00,99.73
1799.00,99.74
1798.00,99.74
1797.00,99.73
1796.00,99.73
1795.00,99.72
1794.00,99.72
1793.00,99.72
1792.00,99.72
1791.00,99.72
1790.00,99.73
1789.00,99.72
1788.00,99.72
1787.00,99.71
1786.00,99.71
1785.00,99.71
1784.00,99.71
1783.00,99.71
1782.00,99.71
1781.00,99.70
1780.00,99.70
1779.00,99.70
1778.00,99.70
1777.00,99.71
1776.00,99.71
1775.00,99.71
1774.00,99.71
1773.00,99.71
1772.00,99.71
1771.00,99.70
1770.00,99.70
1769.00,99.70
1768.00,99.70
1767.00,99.70
1766.00,99.70
1765.00,99.69
1764.00,99.69
1763.00,99.68
1762.00,99.68
1761.00,99.67
1760.00,99.67
1759.00,99.66
1758.00,99.65
1757.00,99.64
1756.00,99.63
1755.00,99.61
1754.00,99.60
1753.00,99.59
1752.00,99.59
1751.00,99.58
1750.00,99.56
1749.00,99.55
1748.00,99.54
1747.00,99.53
1746.00,99.53
1745.00,99.52
1744.00,99.52
1743.00,99.52
1742.00,99.53
1741.00,99.53
1740.00,99.53
1739.00,99.53
1738.00,99.53
1737.00,99.52
1736.00,99.52
1735.00,99.53
1734.00,99.54
1733.00,99.55
1732.00,99.56
1731.00,99.56
1730.00,99.57
1729.00,99.57
1728.00,99.56
1727.00,99.57
1726.00,99.57
1725.00,99.57
1724.00,99.57
1723.00,99.57
1722.00,99.56
1721.00,99.56
1720.00,99.56
1719.00,99.56
1718.00,99.57
1717.00,99.57
1716.00,99.56
1715.00,99.56
1714.00,99.56
1713.00,99.56
1712.00,99.56
1711.00,99.57
1710.00,99.57
1709.00,99.57
1708.00,99.56
1707.00,99.56
1706.00,99.56
1705.00,99.56
1704.00,99.55
1703.00,99.54
1702.00,99.53
1701.00,99.53
1700.00,99.53
1699.00,99.53
1698.00,99.53
1697.00,99.53
1696.00,99.52
1695.00,99.52
1694.00,99.52
1693.00,99.52
1692.00,99.51
1691.00,99.51
1690.00,99.50
1689.00,99.50
1688.00,99.50
1687.00,99.50
1686.00,99.50
1685.00,99.50
1684.00,99.48
1683.00,99.47
1682.00,99.47
1681.00,99.47
1680.00,99.47
1679.00,99.47
1678.00,99.47
1677.00,99.47
1676.00,99.46
1675.00,99.46
1674.00,99.46
1673.00,99.45
1672.00,99.45
1671.00,99.44
1670.00,99.44
1669.00,99.44
1668.00,99.44
1667.00,99.44
1666.00,99.44
1665.00,99.44
1664.00,99.44
1663.00,99.44
1662.00,99.43
1661.00,99.43
1660.00,99.43
1659.00,99.42
1658.00,99.41
1657.00,99.40
1656.00,99.40
1655.00,99.40
1654.00,99.38
1653.00,99.35
1652.00,99.33
1651.00,99.32
1650.00,99.32
1649.00,99.32
1648.00,99.33
1647.00,99.34
1646.00,99.34
1645.00,99.34
1644.00,99.34
1643.00,99.34
1642.00,99.34
1641.00,99.35
1640.00,99.36
1639.00,99.37
1638.00,99.38
1637.00,99.39
1636.00,99.39
1635.00,99.40
1634.00,99.40
1633.00,99.41
1632.00,99.40
1631.00,99.41
1630.00,99.41
1629.00,99.40
1628.00,99.40
1627.00,99.40
1626.00,99.40
1625.00,99.40
1624.00,99.40
1623.00,99.40
1622.00,99.40
1621.00,99.40
1620.00,99.40
1619.00,99.41
1618.00,99.41
1617.00,99.41
1616.00,99.42
1615.00,99.42
1614.00,99.43
1613.00,99.43
1612.00,99.42
1611.00,99.42
1610.00,99.43
1609.00,99.43
1608.00,99.43
1607.00,99.43
1606.00,99.44
1605.00,99.43
1604.00,99.43
1603.00,99.44
1602.00,99.44
1601.00,99.44
1600.00,99.43
1599.00,99.43
1598.00,99.42
1597.00,99.42
1596.00,99.41
1595.00,99.40
1594.00,99.39
1593.00,99.38
1592.00,99.37
1591.00,99.35
1590.00,99.34
1589.00,99.32
1588.00,99.30
1587.00,99.27
1586.00,99.24
1585.00,99.20
1584.00,99.15
1583.00,99.10
1582.00,99.05
1581.00,98.99
1580.00,98.93
1579.00,98.90
1578.00,98.88
1577.00,98.86
1576.00,98.86
1575.00,98.88
1574.00,98.91
1573.00,98.95
1572.00,98.99
1571.00,99.04
1570.00,99.10
1569.00,99.15
1568.00,99.19
1567.00,99.22
1566.00,99.24
1565.00,99.26
1564.00,99.27
1563.00,99.28
1562.00,99.28
1561.00,99.29
1560.00,99.29
1559.00,99.29
1558.00,99.30
1557.00,99.30
1556.00,99.29
1555.00,99.28
1554.00,99.27
1553.00,99.25
1552.00,99.23
1551.00,99.21
1550.00,99.18
1549.00,99.15
1548.00,99.11
1547.00,99.07
1546.00,99.02
1545.00,98.96
1544.00,98.89
1543.00,98.83
1542.00,98.79
1541.00,98.75
1540.00,98.74
1539.00,98.77
1538.00,98.82
1537.00,98.86
1536.00,98.91
1535.00,98.97
1534.00,99.04
1533.00,99.10
1532.00,99.14
1531.00,99.17
1530.00,99.19
1529.00,99.21
1528.00,99.22
1527.00,99.24
1526.00,99.26
1525.00,99.26
1524.00,99.26
1523.00,99.26
1522.00,99.25
1521.00,99.23
1520.00,99.22
1519.00,99.22
1518.00,99.22
1517.00,99.20
1516.00,99.17
1515.00,99.17
1514.00,99.16
1513.00,99.15
1512.00,99.13
1511.00,99.13
1510.00,99.13
1509.00,99.12
1508.00,99.09
1507.00,99.07
1506.00,99.05
1505.00,99.01
1504.00,98.99
1503.00,98.97
1502.00,98.96
1501.00,98.93
1500.00,98.89
1499.00,98.87
1498.00,98.84
1497.00,98.78
1496.00,98.71
1495.00,98.67
1494.00,98.63
1493.00,98.57
1492.00,98.49
1491.00,98.42
1490.00,98.34
1489.00,98.22
1488.00,98.08
1487.00,97.97
1486.00,97.83
1485.00,97.67
1484.00,97.48
1483.00,97.28
1482.00,97.02
1481.00,96.71
1480.00,96.37
1479.00,96.03
1478.00,95.61
1477.00,95.08
1476.00,94.45
1475.00,93.73
1474.00,92.76
1473.00,91.37
1472.00,89.75
1471.00,88.24
1470.00,86.89
1469.00,85.58
1468.00,84.29
1467.00,83.03
1466.00,81.74
1465.00,80.49
1464.00,79.48
1463.00,78.79
1462.00,78.32
1461.00,77.96
1460.00,77.71
1459.00,77.59
1458.00,77.65
1457.00,77.99
1456.00,78.59
1455.00,79.30
1454.00,80.07
1453.00,80.97
1452.00,82.00
1451.00,83.08
1450.00,84.15
1449.00,85.24
1448.00,86.36
1447.00,87.39
1446.00,88.26
1445.00,89.02
1444.00,89.73
1443.00,90.37
1442.00,90.95
1441.00,91.44
1440.00,91.85
1439.00,92.19
1438.00,92.55
1437.00,93.00
1436.00,93.54
1435.00,94.06
1434.00,94.56
1433.00,95.07
1432.00,95.57
1431.00,96.01
1430.00,96.38
1429.00,96.69
1428.00,96.93
1427.00,97.09
1426.00,97.22
1425.00,97.34
1424.00,97.46
1423.00,97.53
1422.00,97.57
1421.00,97.64
1420.00,97.71
1419.00,97.76
1418.00,97.80
1417.00,97.85
1416.00,97.90
1415.00,97.93
1414.00,97.96
1413.00,97.99
1412.00,98.03
1411.00,98.05
1410.00,98.06
1409.00,98.08
1408.00,98.10
1407.00,98.10
1406.00,98.09
1405.00,98.09
1404.00,98.09
1403.00,98.06
1402.00,98.03
1401.00,98.00
1400.00,97.98
1399.00,97.92
1398.00,97.85
1397.00,97.79
1396.00,97.71
1395.00,97.58
1394.00,97.42
1393.00,97.26
1392.00,97.07
1391.00,96.82
1390.00,96.47
1389.00,95.98
1388.00,95.21
1387.00,94.05
1386.00,92.46
1385.00,90.35
1384.00,87.57
1383.00,84.10
1382.00,80.29
1381.00,76.66
1380.00,73.67
1379.00,71.66
1378.00,70.74
1377.00,70.90
1376.00,72.09
1375.00,74.35
1374.00,77.43
1373.00,80.75
1372.00,83.77
1371.00,86.37
1370.00,88.52
1369.00,90.20
1368.00,91.36
1367.00,92.11
1366.00,92.57
1365.00,92.86
1364.00,93.05
1363.00,93.16
1362.00,93.22
1361.00,93.27
1360.00,93.33
1359.00,93.45
1358.00,93.65
1357.00,93.90
1356.00,94.21
1355.00,94.53
1354.00,94.87
1353.00,95.19
1352.00,95.49
1351.00,95.78
1350.00,96.04
1349.00,96.28
1348.00,96.49
1347.00,96.67
1346.00,96.83
1345.00,96.96
1344.00,97.07
1343.00,97.16
1342.00,97.23
1341.00,97.30
1340.00,97.37
1339.00,97.42
1338.00,97.47
1337.00,97.51
1336.00,97.53
1335.00,97.55
1334.00,97.57
1333.00,97.58
1332.00,97.59
1331.00,97.60
1330.00,97.62
1329.00,97.65
1328.00,97.68
1327.00,97.72
1326.00,97.76
1325.00,97.80
1324.00,97.84
1323.00,97.88
1322.00,97.92
1321.00,97.96
1320.00,98.00
1319.00,98.05
1318.00,98.10
1317.00,98.16
1316.00,98.20
1315.00,98.24
1314.00,98.26
1313.00,98.28
1312.00,98.29
1311.00,98.29
1310.00,98.28
1309.00,98.25
1308.00,98.22
1307.00,98.18
1306.00,98.14
1305.00,98.11
1304.00,98.10
1303.00,98.11
1302.00,98.12
1301.00,98.15
1300.00,98.17
1299.00,98.19
1298.00,98.20
1297.00,98.22
1296.00,98.24
1295.00,98.26
1294.00,98.28
1293.00,98.31
1292.00,98.34
1291.00,98.37
1290.00,98.40
1289.00,98.42
1288.00,98.45
1287.00,98.48
1286.00,98.50
1285.00,98.52
1284.00,98.55
1283.00,98.56
1282.00,98.58
1281.00,98.59
1280.00,98.60
1279.00,98.61
1278.00,98.62
1277.00,98.63
1276.00,98.64
1275.00,98.65
1274.00,98.65
1273.00,98.65
1272.00,98.66
1271.00,98.66
1270.00,98.66
1269.00,98.66
1268.00,98.66
1267.00,98.66
1266.00,98.66
1265.00,98.65
1264.00,98.64
1263.00,98.63
1262.00,98.60
1261.00,98.58
1260.00,98.55
1259.00,98.51
1258.00,98.47
1257.00,98.45
1256.00,98.43
1255.00,98.43
1254.00,98.45
1253.00,98.49
1252.00,98.52
1251.00,98.56
1250.00,98.59
1249.00,98.62
1248.00,98.65
1247.00,98.68
1246.00,98.71
1245.00,98.74
1244.00,98.78
1243.00,98.80
1242.00,98.81
1241.00,98.82
1240.00,98.82
1239.00,98.81
1238.00,98.79
1237.00,98.77
1236.00,98.74
1235.00,98.71
1234.00,98.69
1233.00,98.67
1232.00,98.66
1231.00,98.65
1230.00,98.64
1229.00,98.64
1228.00,98.66
1227.00,98.68
1226.00,98.71
1225.00,98.74
1224.00,98.77
1223.00,98.80
1222.00,98.82
1221.00,98.85
1220.00,98.87
1219.00,98.89
1218.00,98.91
1217.00,98.93
1216.00,98.94
1215.00,98.94
1214.00,98.94
1213.00,98.94
1212.00,98.94
1211.00,98.94
1210.00,98.94
1209.00,98.94
1208.00,98.94
1207.00,98.94
1206.00,98.93
1205.00,98.92
1204.00,98.91
1203.00,98.90
1202.00,98.90
1201.00,98.89
1200.00,98.88
1199.00,98.88
1198.00,98.87
1197.00,98.88
1196.00,98.89
1195.00,98.90
1194.00,98.91
1193.00,98.92
1192.00,98.94
1191.00,98.95
1190.00,98.97
1189.00,98.99
1188.00,99.00
1187.00,99.01
1186.00,99.02
1185.00,99.01
1184.00,99.01
1183.00,98.99
1182.00,98.96
1181.00,98.92
1180.00,98.87
1179.00,98.82
1178.00,98.75
1177.00,98.66
1176.00,98.55
1175.00,98.40
1174.00,98.21
1173.00,97.98
1172.00,97.70
1171.00,97.39
1170.00,97.04
1169.00,96.68
1168.00,96.31
1167.00,95.95
1166.00,95.61
1165.00,95.29
1164.00,94.99
1163.00,94.73
1162.00,94.51
1161.00,94.32
1160.00,94.18
1159.00,94.08
1158.00,94.02
1157.00,93.99
1156.00,94.01
1155.00,94.07
1154.00,94.19
1153.00,94.36
1152.00,94.59
1151.00,94.88
1150.00,95.20
1149.00,95.55
1148.00,95.91
1147.00,96.27
1146.00,96.60
1145.00,96.91
1144.00,97.19
1143.00,97.43
1142.00,97.64
1141.00,97.82
1140.00,97.97
1139.00,98.09
1138.00,98.18
1137.00,98.26
1136.00,98.33
1135.00,98.38
1134.00,98.42
1133.00,98.44
1132.00,98.46
1131.00,98.48
1130.00,98.50
1129.00,98.52
1128.00,98.53
1127.00,98.55
1126.00,98.57
1125.00,98.59
1124.00,98.61
1123.00,98.61
1122.00,98.62
1121.00,98.63
1120.00,98.64
1119.00,98.65
1118.00,98.66
1117.00,98.66
1116.00,98.67
1115.00,98.68
1114.00,98.68
1113.00,98.69
1112.00,98.69
1111.00,98.70
1110.00,98.70
1109.00,98.70
1108.00,98.70
1107.00,98.69
1106.00,98.68
1105.00,98.67
1104.00,98.67
1103.00,98.67
1102.00,98.67
1101.00,98.68
1100.00,98.70
1099.00,98.72
1098.00,98.74
1097.00,98.76
1096.00,98.78
1095.00,98.80
1094.00,98.82
1093.00,98.85
1092.00,98.87
1091.00,98.89
1090.00,98.89
1089.00,98.89
1088.00,98.90
1087.00,98.91
1086.00,98.92
1085.00,98.92
1084.00,98.93
1083.00,98.94
1082.00,98.95
1081.00,98.95
1080.00,98.95
1079.00,98.95
1078.00,98.95
1077.00,98.95
1076.00,98.96
1075.00,98.97
1074.00,98.96
1073.00,98.96
1072.00,98.97
1071.00,98.97
1070.00,98.97
1069.00,98.98
1068.00,98.98
1067.00,98.98
1066.00,98.98
1065.00,98.98
1064.00,98.99
1063.00,99.00
1062.00,99.01
1061.00,99.02
1060.00,99.03
1059.00,99.03
1058.00,99.03
1057.00,99.03
1056.00,99.03
1055.00,99.03
1054.00,99.02
1053.00,99.01
1052.00,99.00
1051.00,98.99
1050.00,98.98
1049.00,98.98
1048.00,98.97
1047.00,98.96
1046.00,98.94
1045.00,98.93
1044.00,98.93
1043.00,98.93
1042.00,98.93
1041.00,98.93
1040.00,98.94
1039.00,98.94
1038.00,98.94
1037.00,98.93
1036.00,98.93
1035.00,98.93
1034.00,98.93
1033.00,98.93
1032.00,98.92
1031.00,98.92
1030.00,98.91
1029.00,98.91
1028.00,98.90
1027.00,98.89
1026.00,98.88
1025.00,98.87
1024.00,98.86
1023.00,98.84
1022.00,98.83
1021.00,98.81
1020.00,98.80
1019.00,98.78
1018.00,98.76
1017.00,98.73
1016.00,98.69
1015.00,98.65
1014.00,98.61
1013.00,98.57
1012.00,98.53
1011.00,98.49
1010.00,98.45
1009.00,98.40
1008.00,98.34
1007.00,98.27
1006.00,98.20
1005.00,98.11
1004.00,98.01
1003.00,97.88
1002.00,97.71
1001.00,97.51
1000.00,97.30
999.00,97.13
998.00,97.02
997.00,97.01
996.00,97.09
995.00,97.23
994.00,97.38
993.00,97.52
992.00,97.65
991.00,97.75
990.00,97.83
989.00,97.90
988.00,97.93
987.00,97.93
986.00,97.87
985.00,97.75
984.00,97.56
983.00,97.27
982.00,96.88
981.00,96.40
980.00,95.81
979.00,95.16
978.00,94.46
977.00,93.78
976.00,93.14
975.00,92.60
974.00,92.22
973.00,92.03
972.00,92.06
971.00,92.30
970.00,92.68
969.00,93.13
968.00,93.61
967.00,94.06
966.00,94.46
965.00,94.81
964.00,95.11
963.00,95.38
962.00,95.65
961.00,95.93
960.00,96.21
959.00,96.50
958.00,96.78
957.00,97.04
956.00,97.28
955.00,97.49
954.00,97.67
953.00,97.82
952.00,97.96
951.00,98.09
950.00,98.20
949.00,98.30
948.00,98.39
947.00,98.46
946.00,98.51
945.00,98.56
944.00,98.61
943.00,98.65
942.00,98.69
941.00,98.73
940.00,98.76
939.00,98.78
938.00,98.82
937.00,98.85
936.00,98.88
935.00,98.91
934.00,98.94
933.00,98.96
932.00,98.99
931.00,99.01
930.00,99.03
929.00,99.04
928.00,99.04
927.00,99.05
926.00,99.06
925.00,99.07
924.00,99.07
923.00,99.05
922.00,99.04
921.00,99.03
920.00,99.02
919.00,99.01
918.00,99.00
917.00,98.99
916.00,98.96
915.00,98.93
914.00,98.88
913.00,98.83
912.00,98.77
911.00,98.72
910.00,98.67
909.00,98.65
908.00,98.64
907.00,98.62
906.00,98.56
905.00,98.47
904.00,98.35
903.00,98.19
902.00,98.03
901.00,97.90
900.00,97.80
899.00,97.77
898.00,97.79
897.00,97.85
896.00,97.93
895.00,97.99
894.00,98.03
893.00,98.02
892.00,97.98
891.00,97.89
890.00,97.78
889.00,97.70
888.00,97.67
887.00,97.71
886.00,97.80
885.00,97.92
884.00,98.05
883.00,98.17
882.00,98.26
881.00,98.33
880.00,98.37
879.00,98.39
878.00,98.39
877.00,98.38
876.00,98.36
875.00,98.35
874.00,98.33
873.00,98.33
872.00,98.33
871.00,98.32
870.00,98.31
869.00,98.29
868.00,98.28
867.00,98.25
866.00,98.24
865.00,98.23
864.00,98.22
863.00,98.21
862.00,98.19
861.00,98.16
860.00,98.14
859.00,98.11
858.00,98.09
857.00,98.07
856.00,98.05
855.00,98.02
854.00,97.99
853.00,97.95
852.00,97.91
851.00,97.87
850.00,97.81
849.00,97.75
848.00,97.67
847.00,97.56
846.00,97.40
845.00,97.20
844.00,96.96
843.00,96.72
842.00,96.55
841.00,96.52
840.00,96.64
839.00,96.84
838.00,97.04
837.00,97.19
836.00,97.28
835.00,97.33
834.00,97.35
833.00,97.36
832.00,97.36
831.00,97.34
830.00,97.32
829.00,97.31
828.00,97.30
827.00,97.31
826.00,97.31
825.00,97.32
824.00,97.32
823.00,97.33
822.00,97.34
821.00,97.35
820.00,97.35
819.00,97.34
818.00,97.32
817.00,97.30
816.00,97.27
815.00,97.25
814.00,97.21
813.00,97.17
812.00,97.13
811.00,97.10
810.00,97.10
809.00,97.14
808.00,97.22
807.00,97.31
806.00,97.42
805.00,97.54
804.00,97.67
803.00,97.79
802.00,97.90
801.00,98.00
800.00,98.10
799.00,98.19
798.00,98.28
797.00,98.37
796.00,98.46
795.00,98.54
794.00,98.61
793.00,98.67
792.00,98.73
791.00,98.78
790.00,98.83
789.00,98.88
788.00,98.92
787.00,98.97
786.00,99.01
785.00,99.06
784.00,99.10
783.00,99.13
782.00,99.16
781.00,99.20
780.00,99.23
779.00,99.26
778.00,99.28
777.00,99.29
776.00,99.30
775.00,99.31
774.00,99.31
773.00,99.31
772.00,99.32
771.00,99.33
770.00,99.34
769.00,99.35
768.00,99.35
767.00,99.35
766.00,99.34
765.00,99.34
764.00,99.35
763.00,99.36
762.00,99.37
761.00,99.39
760.00,99.40
759.00,99.41
758.00,99.39
757.00,99.37
756.00,99.34
755.00,99.33
754.00,99.32
753.00,99.33
752.00,99.33
751.00,99.31
750.00,99.30
749.00,99.29
748.00,99.28
747.00,99.28
746.00,99.28
745.00,99.27
744.00,99.27
743.00,99.25
742.00,99.22
741.00,99.18
740.00,99.16
739.00,99.15
738.00,99.15
737.00,99.16
736.00,99.18
735.00,99.19
734.00,99.20
733.00,99.21
732.00,99.22
731.00,99.23
730.00,99.24
729.00,99.26
728.00,99.27
727.00,99.26
726.00,99.25
725.00,99.24
724.00,99.25
723.00,99.26
722.00,99.28
721.00,99.31
720.00,99.33
719.00,99.35
718.00,99.36
717.00,99.37
716.00,99.39
715.00,99.40
714.00,99.40
713.00,99.41
712.00,99.42
711.00,99.43
710.00,99.45
709.00,99.47
708.00,99.48
707.00,99.47
706.00,99.45
705.00,99.44
704.00,99.44
703.00,99.44
702.00,99.42
701.00,99.42
700.00,99.43
699.00,99.44
698.00,99.45
697.00,99.45
696.00,99.46
695.00,99.45
694.00,99.43
693.00,99.41
692.00,99.41
691.00,99.41
690.00,99.42
689.00,99.44
688.00,99.45
687.00,99.46
686.00,99.46
685.00,99.45
684.00,99.44
683.00,99.43
682.00,99.42
681.00,99.43
680.00,99.45
679.00,99.45
678.00,99.43
677.00,99.40
676.00,99.39
675.00,99.38
674.00,99.37
673.00,99.38
672.00,99.39
671.00,99.40
670.00,99.39
669.00,99.37
668.00,99.35
667.00,99.35
666.00,99.35
665.00,99.36
664.00,99.38
663.00,99.41
662.00,99.44
661.00,99.44
660.00,99.43
659.00,99.41
658.00,99.40
657.00,99.39
656.00,99.40
655.00,99.41
654.00,99.41
653.00,99.41
652.00,99.41
651.00,99.42
650.00,99.42
