Created as New Dataset,PP 250 kDa Sigma
cm-1,%T
4000.00,99.10
3999.00,99.10
3998.00,99.09
3997.00,99.09
3996.00,99.09
3995.00,99.09
3994.00,99.09
3993.00,99.09
3992.00,99.09
3991.00,99.10
3990.00,99.10
3989.00,99.10
3988.00,99.10
3987.00,99.10
3986.00,99.10
3985.00,99.10
3984.00,99.10
3983.00,99.11
3982.00,99.11
3981.00,99.11
3980.00,99.11
3979.00,99.11
3978.00,99.10
3977.00,99.10
3976.00,99.10
3975.00,99.10
3974.00,99.10
3973.00,99.10
3972.00,99.10
3971.00,99.10
3970.00,99.10
3969.00,99.10
3968.00,99.10
3967.00,99.10
3966.00,99.10
3965.00,99.10
3964.00,99.10
3963.00,99.10
3962.00,99.10
3961.00,99.10
3960.00,99.10
3959.00,99.10
3958.00,99.10
3957.00,99.10
3956.00,99.10
3955.00,99.10
3954.00,99.11
3953.00,99.11
3952.00,99.11
3951.00,99.11
3950.00,99.11
3949.00,99.11
3948.00,99.11
3947.00,99.11
3946.00,99.10
3945.00,99.10
3944.00,99.10
3943.00,99.10
3942.00,99.10
3941.00,99.10
3940.00,99.10
3939.00,99.09
3938.00,99.09
3937.00,99.09
3936.00,99.09
3935.00,99.09
3934.00,99.09
3933.00,99.09
3932.00,99.10
3931.00,99.10
3930.00,99.09
3929.00,99.09
3928.00,99.09
3927.00,99.09
3926.00,99.09
3925.00,99.09
3924.00,99.09
3923.00,99.09
3922.00,99.09
3921.00,99.09
3920.00,99.09
3919.00,99.09
3918.00,99.09
3917.00,99.09
3916.00,99.09
3915.00,99.09
3914.00,99.09
3913.00,99.09
3912.00,99.09
3911.00,99.09
3910.00,99.09
3909.00,99.09
3908.00,99.09
3907.00,99.09
3906.00,99.10
3905.00,99.10
3904.00,99.09
3903.00,99.09
3902.00,99.09
3901.00,99.09
3900.00,99.09
3899.00,99.09
3898.00,99.09
3897.00,99.08
3896.00,99.08
3895.00,99.08
3894.00,99.09
3893.00,99.09
3892.00,99.08
3891.00,99.08
3890.00,99.08
3889.00,99.08
3888.00,99.08
3887.00,99.07
3886.00,99.08
3885.00,99.08
3884.00,99.08
3883.00,99.08
3882.00,99.08
3881.00,99.08
3880.00,99.08
3879.00,99.08
3878.00,99.08
3877.00,99.08
3876.00,99.07
3875.00,99.08
3874.00,99.08
3873.00,99.08
3872.00,99.07
3871.00,99.07
3870.00,99.07
3869.00,99.08
3868.00,99.08
3867.00,99.07
3866.00,99.07
3865.00,99.07
3864.00,99.07
3863.00,99.07
3862.00,99.07
3861.00,99.07
3860.00,99.07
3859.00,99.07
3858.00,99.07
3857.00,99.07
3856.00,99.07
3855.00,99.06
3854.00,99.06
3853.00,99.06
3852.00,99.06
3851.00,99.06
3850.00,99.06
3849.00,99.06
3848.00,99.06
3847.00,99.06
3846.00,99.07
3845.00,99.07
3844.00,99.07
3843.00,99.07
3842.00,99.07
3841.00,99.07
3840.00,99.07
3839.00,99.06
3838.00,99.06
3837.00,99.06
3836.00,99.05
3835.00,99.05
3834.00,99.05
3833.00,99.05
3832.00,99.05
3831.00,99.06
3830.00,99.06
3829.00,99.05
3828.00,99.05
3827.00,99.05
3826.00,99.06
3825.00,99.06
3824.00,99.05
3823.00,99.05
3822.00,99.04
3821.00,99.05
3820.00,99.05
3819.00,99.05
3818.00,99.04
3817.00,99.04
3816.00,99.04
3815.00,99.05
3814.00,99.05
3813.00,99.05
3812.00,99.05
3811.00,99.05
3810.00,99.05
3809.00,99.04
3808.00,99.04
3807.00,99.04
3806.00,99.04
3805.00,99.04
3804.00,99.04
3803.00,99.03
3802.00,99.03
3801.00,99.03
3800.00,99.03
3799.00,99.03
3798.00,99.03
3797.00,99.03
3796.00,99.04
3795.00,99.04
3794.00,99.04
3793.00,99.04
3792.00,99.04
3791.00,99.04
3790.00,99.04
3789.00,99.04
3788.00,99.04
3787.00,99.04
3786.00,99.03
3785.00,99.03
3784.00,99.03
3783.00,99.03
3782.00,99.03
3781.00,99.03
3780.00,99.03
3779.00,99.03
3778.00,99.03
3777.00,99.03
3776.00,99.03
3775.00,99.03
3774.00,99.03
3773.00,99.03
3772.00,99.03
3771.00,99.02
3770.00,99.02
3769.00,99.02
3768.00,99.02
3767.00,99.02
3766.00,99.01
3765.00,99.02
3764.00,99.02
3763.00,99.02
3762.00,99.01
3761.00,99.01
3760.00,99.01
3759.00,99.01
3758.00,99.01
3757.00,99.01
3756.00,99.01
3755.00,99.01
3754.00,99.01
3753.00,99.01
3752.00,99.01
3751.00,99.01
3750.00,99.01
3749.00,99.01
3748.00,99.01
3747.00,99.00
3746.00,99.00
3745.00,99.00
3744.00,99.01
3743.00,99.01
3742.00,99.01
3741.00,99.01
3740.00,99.02
3739.00,99.02
3738.00,99.03
3737.00,99.03
3736.00,99.03
3735.00,99.02
3734.00,99.02
3733.00,99.02
3732.00,99.02
3731.00,99.02
3730.00,99.03
3729.00,99.03
3728.00,99.03
3727.00,99.03
3726.00,99.03
3725.00,99.03
3724.00,99.03
3723.00,99.03
3722.00,99.03
3721.00,99.02
3720.00,99.02
3719.00,99.01
3718.00,99.01
3717.00,99.02
3716.00,99.02
3715.00,99.02
3714.00,99.02
3713.00,99.02
3712.00,99.02
3711.00,99.02
3710.00,99.03
3709.00,99.03
3708.00,99.03
3707.00,99.03
3706.00,99.03
3705.00,99.04
3704.00,99.04
3703.00,99.04
3702.00,99.03
3701.00,99.03
3700.00,99.03
3699.00,99.03
3698.00,99.03
3697.00,99.03
3696.00,99.03
3695.00,99.03
3694.00,99.03
3693.00,99.03
3692.00,99.03
3691.00,99.03
3690.00,99.03
3689.00,99.03
3688.00,99.03
3687.00,99.03
3686.00,99.03
3685.00,99.03
3684.00,99.02
3683.00,99.02
3682.00,99.03
3681.00,99.03
3680.00,99.03
3679.00,99.04
3678.00,99.04
3677.00,99.03
3676.00,99.03
3675.00,99.04
3674.00,99.04
3673.00,99.03
3672.00,99.02
3671.00,99.02
3670.00,99.02
3669.00,99.03
3668.00,99.03
3667.00,99.04
3666.00,99.04
3665.00,99.04
3664.00,99.04
3663.00,99.04
3662.00,99.04
3661.00,99.04
3660.00,99.04
3659.00,99.04
3658.00,99.04
3657.00,99.04
3656.00,99.04
3655.00,99.04
3654.00,99.04
3653.00,99.04
3652.00,99.03
3651.00,99.03
3650.00,99.03
3649.00,99.03
3648.00,99.03
3647.00,99.03
3646.00,99.04
3645.00,99.05
3644.00,99.05
3643.00,99.05
3642.00,99.06
3641.00,99.06
3640.00,99.05
3639.00,99.05
3638.00,99.05
3637.00,99.05
3636.00,99.05
3635.00,99.05
3634.00,99.05
3633.00,99.06
3632.00,99.05
3631.00,99.05
3630.00,99.05
3629.00,99.05
3628.00,99.06
3627.00,99.06
3626.00,99.07
3625.00,99.07
3624.00,99.07
3623.00,99.07
3622.00,99.06
3621.00,99.06
3620.00,99.06
3619.00,99.07
3618.00,99.07
3617.00,99.07
3616.00,99.07
3615.00,99.07
3614.00,99.07
3613.00,99.07
3612.00,99.06
3611.00,99.06
3610.00,99.06
3609.00,99.06
3608.00,99.07
3607.00,99.07
3606.00,99.07
3605.00,99.06
3604.00,99.06
3603.00,99.07
3602.00,99.07
3601.00,99.07
3600.00,99.07
3599.00,99.07
3598.00,99.06
3597.00,99.06
3596.00,99.07
3595.00,99.07
3594.00,99.07
3593.00,99.07
3592.00,99.07
3591.00,99.07
3590.00,99.08
3589.00,99.08
3588.00,99.08
3587.00,99.09
3586.00,99.08
3585.00,99.08
3584.00,99.08
3583.00,99.08
3582.00,99.08
3581.00,99.08
3580.00,99.08
3579.00,99.08
3578.00,99.07
3577.00,99.07
3576.00,99.07
3575.00,99.07
3574.00,99.07
3573.00,99.08
3572.00,99.08
3571.00,99.08
3570.00,99.08
3569.00,99.08
3568.00,99.08
3567.00,99.08
3566.00,99.08
3565.00,99.07
3564.00,99.07
3563.00,99.08
3562.00,99.08
3561.00,99.08
3560.00,99.08
3559.00,99.07
3558.00,99.07
3557.00,99.07
3556.00,99.07
3555.00,99.07
3554.00,99.07
3553.00,99.06
3552.00,99.06
3551.00,99.06
3550.00,99.06
3549.00,99.06
3548.00,99.06
3547.00,99.07
3546.00,99.07
3545.00,99.07
3544.00,99.07
3543.00,99.07
3542.00,99.07
3541.00,99.07
3540.00,99.07
3539.00,99.06
3538.00,99.06
3537.00,99.06
3536.00,99.06
3535.00,99.06
3534.00,99.06
3533.00,99.06
3532.00,99.06
3531.00,99.07
3530.00,99.07
3529.00,99.07
3528.00,99.07
3527.00,99.06
3526.00,99.06
3525.00,99.06
3524.00,99.06
3523.00,99.06
3522.00,99.06
3521.00,99.06
3520.00,99.06
3519.00,99.06
3518.00,99.06
3517.00,99.05
3516.00,99.05
3515.00,99.06
3514.00,99.06
3513.00,99.06
3512.00,99.06
3511.00,99.06
3510.00,99.06
3509.00,99.06
3508.00,99.06
3507.00,99.06
3506.00,99.05
3505.00,99.05
3504.00,99.05
3503.00,99.06
3502.00,99.06
3501.00,99.06
3500.00,99.06
3499.00,99.06
3498.00,99.06
3497.00,99.06
3496.00,99.06
3495.00,99.06
3494.00,99.06
3493.00,99.06
3492.00,99.06
3491.00,99.06
3490.00,99.06
3489.00,99.06
3488.00,99.06
3487.00,99.06
3486.00,99.06
3485.00,99.06
3484.00,99.06
3483.00,99.06
3482.00,99.07
3481.00,99.07
3480.00,99.06
3479.00,99.06
3478.00,99.06
3477.00,99.05
3476.00,99.05
3475.00,99.05
3474.00,99.05
3473.00,99.05
3472.00,99.05
3471.00,99.05
3470.00,99.05
3469.00,99.05
3468.00,99.05
3467.00,99.05
3466.00,99.05
3465.00,99.04
3464.00,99.04
3463.00,99.04
3462.00,99.04
3461.00,99.05
3460.00,99.05
3459.00,99.05
3458.00,99.05
3457.00,99.05
3456.00,99.05
3455.00,99.05
3454.00,99.04
3453.00,99.04
3452.00,99.04
3451.00,99.04
3450.00,99.04
3449.00,99.04
3448.00,99.04
3447.00,99.04
3446.00,99.04
3445.00,99.05
3444.00,99.05
3443.00,99.05
3442.00,99.05
3441.00,99.04
3440.00,99.04
3439.00,99.04
3438.00,99.04
3437.00,99.04
3436.00,99.04
3435.00,99.04
3434.00,99.04
3433.00,99.04
3432.00,99.04
3431.00,99.04
3430.00,99.04
3429.00,99.03
3428.00,99.03
3427.00,99.03
3426.00,99.03
3425.00,99.03
3424.00,99.03
3423.00,99.03
3422.00,99.03
3421.00,99.03
3420.00,99.03
3419.00,99.03
3418.00,99.03
3417.00,99.03
3416.00,99.03
3415.00,99.04
3414.00,99.04
3413.00,99.04
3412.00,99.03
3411.00,99.03
3410.00,99.03
3409.00,99.03
3408.00,99.03
3407.00,99.02
3406.00,99.02
3405.00,99.02
3404.00,99.03
3403.00,99.03
3402.00,99.03
3401.00,99.03
3400.00,99.03
3399.00,99.03
3398.00,99.03
3397.00,99.03
3396.00,99.03
3395.00,99.03
3394.00,99.03
3393.00,99.04
3392.00,99.04
3391.00,99.04
3390.00,99.04
3389.00,99.04
3388.00,99.03
3387.00,99.03
3386.00,99.03
3385.00,99.03
3384.00,99.03
3383.00,99.03
3382.00,99.03
3381.00,99.03
3380.00,99.03
3379.00,99.03
3378.00,99.03
3377.00,99.03
3376.00,99.03
3375.00,99.02
3374.00,99.02
3373.00,99.02
3372.00,99.02
3371.00,99.03
3370.00,99.03
3369.00,99.02
3368.00,99.02
3367.00,99.02
3366.00,99.02
3365.00,99.02
3364.00,99.02
3363.00,99.02
3362.00,99.02
3361.00,99.02
3360.00,99.02
3359.00,99.02
3358.00,99.02
3357.00,99.02
3356.00,99.02
3355.00,99.02
3354.00,99.02
3353.00,99.02
3352.00,99.02
3351.00,99.02
3350.00,99.01
3349.00,99.01
3348.00,99.01
3347.00,99.01
3346.00,99.01
3345.00,99.01
3344.00,99.01
3343.00,99.01
3342.00,99.01
3341.00,99.01
3340.00,99.01
3339.00,99.01
3338.00,99.01
3337.00,99.02
3336.00,99.02
3335.00,99.02
3334.00,99.02
3333.00,99.02
3332.00,99.02
3331.00,99.02
3330.00,99.02
3329.00,99.03
3328.00,99.03
3327.00,99.03
3326.00,99.03
3325.00,99.03
3324.00,99.02
3323.00,99.02
3322.00,99.02
3321.00,99.02
3320.00,99.01
3319.00,99.01
3318.00,99.01
3317.00,99.02
3316.00,99.02
3315.00,99.02
3314.00,99.02
3313.00,99.02
3312.00,99.02
3311.00,99.02
3310.00,99.02
3309.00,99.02
3308.00,99.02
3307.00,99.02
3306.00,99.02
3305.00,99.02
3304.00,99.02
3303.00,99.02
3302.00,99.02
3301.00,99.02
3300.00,99.02
3299.00,99.02
3298.00,99.02
3297.00,99.02
3296.00,99.02
3295.00,99.02
3294.00,99.01
3293.00,99.01
3292.00,99.01
3291.00,99.00
3290.00,99.00
3289.00,99.00
3288.00,99.01
3287.00,99.01
3286.00,99.01
3285.00,99.02
3284.00,99.02
3283.00,99.02
3282.00,99.02
3281.00,99.02
3280.00,99.02
3279.00,99.02
3278.00,99.02
3277.00,99.02
3276.00,99.01
3275.00,99.01
3274.00,99.01
3273.00,99.00
3272.00,99.00
3271.00,99.01
3270.00,99.01
3269.00,99.01
3268.00,99.01
3267.00,99.01
3266.00,99.01
3265.00,99.01
3264.00,99.01
3263.00,99.01
3262.00,99.01
3261.00,99.01
3260.00,99.01
3259.00,99.01
3258.00,99.01
3257.00,99.01
3256.00,99.01
3255.00,99.01
3254.00,99.01
3253.00,99.01
3252.00,99.02
3251.00,99.02
3250.00,99.02
3249.00,99.02
3248.00,99.02
3247.00,99.01
3246.00,99.01
3245.00,99.01
3244.00,99.01
3243.00,99.02
3242.00,99.02
3241.00,99.02
3240.00,99.01
3239.00,99.01
3238.00,99.00
3237.00,99.00
3236.00,99.00
3235.00,99.00
3234.00,99.00
3233.00,99.00
3232.00,99.00
3231.00,99.00
3230.00,99.00
3229.00,98.99
3228.00,98.99
3227.00,98.99
3226.00,98.99
3225.00,98.98
3224.00,98.98
3223.00,98.98
3222.00,98.97
3221.00,98.97
3220.00,98.97
3219.00,98.97
3218.00,98.97
3217.00,98.97
3216.00,98.96
3215.00,98.96
3214.00,98.96
3213.00,98.95
3212.00,98.95
3211.00,98.95
3210.00,98.94
3209.00,98.94
3208.00,98.95
3207.00,98.95
3206.00,98.95
3205.00,98.95
3204.00,98.94
3203.00,98.94
3202.00,98.94
3201.00,98.94
3200.00,98.94
3199.00,98.94
3198.00,98.94
3197.00,98.94
3196.00,98.94
3195.00,98.94
3194.00,98.94
3193.00,98.94
3192.00,98.94
3191.00,98.94
3190.00,98.94
3189.00,98.94
3188.00,98.94
3187.00,98.95
3186.00,98.95
3185.00,98.95
3184.00,98.95
3183.00,98.95
3182.00,98.95
3181.00,98.95
3180.00,98.95
3179.00,98.95
3178.00,98.95
3177.00,98.95
3176.00,98.95
3175.00,98.95
3174.00,98.95
3173.00,98.95
3172.00,98.94
3171.00,98.94
3170.00,98.95
3169.00,98.95
3168.00,98.96
3167.00,98.96
3166.00,98.96
3165.00,98.96
3164.00,98.96
3163.00,98.96
3162.00,98.95
3161.00,98.95
3160.00,98.95
3159.00,98.95
3158.00,98.95
3157.00,98.94
3156.00,98.94
3155.00,98.94
3154.00,98.94
3153.00,98.94
3152.00,98.94
3151.00,98.94
3150.00,98.94
3149.00,98.94
3148.00,98.94
3147.00,98.94
3146.00,98.94
3145.00,98.94
3144.00,98.94
3143.00,98.95
3142.00,98.95
3141.00,98.95
3140.00,98.95
3139.00,98.95
3138.00,98.95
3137.00,98.96
3136.00,98.96
3135.00,98.96
3134.00,98.96
3133.00,98.96
3132.00,98.97
3131.00,98.97
3130.00,98.97
3129.00,98.97
3128.00,98.97
3127.00,98.97
3126.00,98.97
3125.00,98.97
3124.00,98.97
3123.00,98.97
3122.00,98.97
3121.00,98.97
3120.00,98.98
3119.00,98.98
3118.00,98.98
3117.00,98.98
3116.00,98.98
3115.00,98.98
3114.00,98.98
3113.00,98.98
3112.00,98.98
3111.00,98.98
3110.00,98.98
3109.00,98.98
3108.00,98.99
3107.00,98.99
3106.00,98.99
3105.00,98.99
3104.00,98.99
3103.00,98.99
3102.00,99.00
3101.00,99.00
3100.00,99.00
3099.00,99.00
3098.00,99.00
3097.00,99.00
3096.00,99.00
3095.00,99.00
3094.00,99.00
3093.00,99.00
3092.00,99.00
3091.00,99.00
3090.00,99.00
3089.00,99.00
3088.00,99.00
3087.00,99.00
3086.00,99.00
3085.00,99.00
3084.00,99.01
3083.00,99.00
3082.00,99.00
3081.00,99.00
3080.00,99.01
3079.00,99.01
3078.00,99.01
3077.00,99.01
3076.00,99.00
3075.00,99.00
3074.00,99.00
3073.00,99.00
3072.00,99.00
3071.00,99.00
3070.00,99.00
3069.00,99.00
3068.00,99.00
3067.00,99.00
3066.00,99.00
3065.00,99.00
3064.00,99.00
3063.00,99.00
3062.00,99.00
3061.00,98.99
3060.00,98.99
3059.00,99.00
3058.00,99.00
3057.00,99.00
3056.00,98.99
3055.00,98.99
3054.00,98.99
3053.00,99.00
3052.00,99.00
3051.00,99.00
3050.00,99.00
3049.00,99.00
3048.00,99.00
3047.00,99.00
3046.00,99.00
3045.00,99.00
3044.00,99.00
3043.00,99.00
3042.00,99.00
3041.00,99.00
3040.00,99.00
3039.00,99.00
3038.00,99.00
3037.00,99.00
3036.00,99.00
3035.00,99.00
3034.00,99.00
3033.00,99.00
3032.00,98.99
3031.00,98.99
3030.00,98.98
3029.00,98.98
3028.00,98.98
3027.00,98.98
3026.00,98.98
3025.00,98.98
3024.00,98.97
3023.00,98.97
3022.00,98.96
3021.00,98.96
3020.00,98.95
3019.00,98.94
3018.00,98.93
3017.00,98.93
3016.00,98.92
3015.00,98.92
3014.00,98.91
3013.00,98.91
3012.00,98.90
3011.00,98.89
3010.00,98.88
3009.00,98.87
3008.00,98.86
3007.00,98.84
3006.00,98.83
3005.00,98.81
3004.00,98.80
3003.00,98.78
3002.00,98.76
3001.00,98.74
3000.00,98.72
2999.00,98.69
2998.00,98.66
2997.00,98.63
2996.00,98.60
2995.00,98.56
2994.00,98.52
2993.00,98.47
2992.00,98.42
2991.00,98.36
2990.00,98.30
2989.00,98.23
2988.00,98.15
2987.00,98.06
2986.00,97.96
2985.00,97.85
2984.00,97.73
2983.00,97.59
2982.00,97.43
2981.00,97.25
2980.00,97.05
2979.00,96.83
2978.00,96.57
2977.00,96.28
2976.00,95.96
2975.00,95.59
2974.00,95.18
2973.00,94.72
2972.00,94.22
2971.00,93.66
2970.00,93.07
2969.00,92.42
2968.00,91.74
2967.00,91.03
2966.00,90.31
2965.00,89.59
2964.00,88.90
2963.00,88.28
2962.00,87.73
2961.00,87.27
2960.00,86.90
2959.00,86.58
2958.00,86.29
2957.00,86.00
2956.00,85.68
2955.00,85.33
2954.00,84.97
2953.00,84.63
2952.00,84.38
2951.00,84.26
2950.00,84.34
2949.00,84.64
2948.00,85.18
2947.00,85.92
2946.00,86.80
2945.00,87.74
2944.00,88.66
2943.00,89.47
2942.00,90.12
2941.00,90.59
2940.00,90.88
2939.00,90.99
2938.00,90.94
2937.00,90.76
2936.00,90.46
2935.00,90.05
2934.00,89.54
2933.00,88.96
2932.00,88.32
2931.00,87.63
2930.00,86.94
2929.00,86.24
2928.00,85.57
2927.00,84.93
2926.00,84.32
2925.00,83.75
2924.00,83.20
2923.00,82.66
2922.00,82.16
2921.00,81.70
2920.00,81.32
2919.00,81.07
2918.00,80.97
2917.00,81.05
2916.00,81.28
2915.00,81.64
2914.00,82.09
2913.00,82.57
2912.00,83.04
2911.00,83.48
2910.00,83.89
2909.00,84.28
2908.00,84.67
2907.00,85.05
2906.00,85.45
2905.00,85.87
2904.00,86.30
2903.00,86.74
2902.00,87.19
2901.00,87.63
2900.00,88.06
2899.00,88.48
2898.00,88.87
2897.00,89.23
2896.00,89.55
2895.00,89.82
2894.00,90.04
2893.00,90.21
2892.00,90.33
2891.00,90.41
2890.00,90.46
2889.00,90.46
2888.00,90.45
2887.00,90.41
2886.00,90.34
2885.00,90.25
2884.00,90.12
2883.00,89.96
2882.00,89.77
2881.00,89.56
2880.00,89.36
2879.00,89.19
2878.00,89.08
2877.00,89.04
2876.00,89.05
2875.00,89.09
2874.00,89.13
2873.00,89.13
2872.00,89.09
2871.00,89.00
2870.00,88.90
2869.00,88.81
2868.00,88.80
2867.00,88.92
2866.00,89.21
2865.00,89.69
2864.00,90.32
2863.00,91.06
2862.00,91.82
2861.00,92.54
2860.00,93.17
2859.00,93.68
2858.00,94.08
2857.00,94.36
2856.00,94.55
2855.00,94.65
2854.00,94.67
2853.00,94.62
2852.00,94.50
2851.00,94.32
2850.00,94.08
2849.00,93.78
2848.00,93.41
2847.00,92.98
2846.00,92.49
2845.00,91.94
2844.00,91.35
2843.00,90.75
2842.00,90.18
2841.00,89.66
2840.00,89.26
2839.00,89.00
2838.00,88.95
2837.00,89.12
2836.00,89.52
2835.00,90.11
2834.00,90.84
2833.00,91.64
2832.00,92.42
2831.00,93.14
2830.00,93.77
2829.00,94.30
2828.00,94.73
2827.00,95.08
2826.00,95.38
2825.00,95.62
2824.00,95.82
2823.00,95.99
2822.00,96.14
2821.00,96.27
2820.00,96.38
2819.00,96.48
2818.00,96.58
2817.00,96.65
2816.00,96.72
2815.00,96.79
2814.00,96.84
2813.00,96.89
2812.00,96.94
2811.00,96.99
2810.00,97.04
2809.00,97.09
2808.00,97.15
2807.00,97.20
2806.00,97.26
2805.00,97.32
2804.00,97.38
2803.00,97.44
2802.00,97.49
2801.00,97.53
2800.00,97.56
2799.00,97.59
2798.00,97.62
2797.00,97.64
2796.00,97.66
2795.00,97.69
2794.00,97.71
2793.00,97.74
2792.00,97.77
2791.00,97.80
2790.00,97.83
2789.00,97.87
2788.00,97.90
2787.00,97.93
2786.00,97.96
2785.00,97.98
2784.00,98.00
2783.00,98.02
2782.00,98.04
2781.00,98.07
2780.00,98.08
2779.00,98.10
2778.00,98.11
2777.00,98.13
2776.00,98.14
2775.00,98.15
2774.00,98.16
2773.00,98.17
2772.00,98.17
2771.00,98.18
2770.00,98.19
2769.00,98.19
2768.00,98.20
2767.00,98.21
2766.00,98.21
2765.00,98.22
2764.00,98.22
2763.00,98.23
2762.00,98.24
2761.00,98.24
2760.00,98.25
2759.00,98.26
2758.00,98.26
2757.00,98.27
2756.00,98.27
2755.00,98.27
2754.00,98.28
2753.00,98.28
2752.00,98.28
2751.00,98.29
2750.00,98.29
2749.00,98.29
2748.00,98.29
2747.00,98.29
2746.00,98.28
2745.00,98.27
2744.00,98.27
2743.00,98.26
2742.00,98.25
2741.00,98.24
2740.00,98.23
2739.00,98.22
2738.00,98.20
2737.00,98.19
2736.00,98.18
2735.00,98.17
2734.00,98.16
2733.00,98.14
2732.00,98.13
2731.00,98.11
2730.00,98.08
2729.00,98.06
2728.00,98.03
2727.00,98.00
2726.00,97.98
2725.00,97.96
2724.00,97.95
2723.00,97.95
2722.00,97.96
2721.00,97.97
2720.00,98.00
2719.00,98.03
2718.00,98.06
2717.00,98.09
2716.00,98.11
2715.00,98.14
2714.00,98.16
2713.00,98.18
2712.00,98.20
2711.00,98.22
2710.00,98.23
2709.00,98.24
2708.00,98.26
2707.00,98.27
2706.00,98.29
2705.00,98.30
2704.00,98.31
2703.00,98.32
2702.00,98.33
2701.00,98.34
2700.00,98.34
2699.00,98.35
2698.00,98.36
2697.00,98.36
2696.00,98.36
2695.00,98.37
2694.00,98.37
2693.00,98.37
2692.00,98.36
2691.00,98.36
2690.00,98.36
2689.00,98.36
2688.00,98.36
2687.00,98.36
2686.00,98.36
2685.00,98.36
2684.00,98.36
2683.00,98.36
2682.00,98.36
2681.00,98.36
2680.00,98.36
2679.00,98.35
2678.00,98.35
2677.00,98.35
2676.00,98.35
2675.00,98.36
2674.00,98.36
2673.00,98.36
2672.00,98.36
2671.00,98.37
2670.00,98.37
2669.00,98.37
2668.00,98.37
2667.00,98.37
2666.00,98.36
2665.00,98.35
2664.00,98.35
2663.00,98.34
2662.00,98.33
2661.00,98.32
2660.00,98.31
2659.00,98.31
2658.00,98.30
2657.00,98.30
2656.00,98.30
2655.00,98.30
2654.00,98.30
2653.00,98.31
2652.00,98.31
2651.00,98.31
2650.00,98.31
2649.00,98.32
2648.00,98.32
2647.00,98.32
2646.00,98.32
2645.00,98.32
2644.00,98.32
2643.00,98.32
2642.00,98.32
2641.00,98.32
2640.00,98.33
2639.00,98.33
2638.00,98.34
2637.00,98.34
2636.00,98.34
2635.00,98.34
2634.00,98.34
2633.00,98.34
2632.00,98.33
2631.00,98.33
2630.00,98.32
2629.00,98.32
2628.00,98.32
2627.00,98.32
2626.00,98.31
2625.00,98.31
2624.00,98.31
2623.00,98.31
2622.00,98.31
2621.00,98.30
2620.00,98.30
2619.00,98.30
2618.00,98.30
2617.00,98.30
2616.00,98.29
2615.00,98.29
2614.00,98.29
2613.00,98.30
2612.00,98.30
2611.00,98.31
2610.00,98.32
2609.00,98.33
2608.00,98.34
2607.00,98.34
2606.00,98.35
2605.00,98.35
2604.00,98.36
2603.00,98.36
2602.00,98.36
2601.00,98.36
2600.00,98.37
2599.00,98.37
2598.00,98.37
2597.00,98.37
2596.00,98.37
2595.00,98.37
2594.00,98.37
2593.00,98.36
2592.00,98.35
2591.00,98.34
2590.00,98.33
2589.00,98.31
2588.00,98.31
2587.00,98.30
2586.00,98.29
2585.00,98.28
2584.00,98.28
2583.00,98.27
2582.00,98.28
2581.00,98.28
2580.00,98.29
2579.00,98.30
2578.00,98.31
2577.00,98.33
2576.00,98.34
2575.00,98.35
2574.00,98.36
2573.00,98.36
2572.00,98.37
2571.00,98.37
2570.00,98.38
2569.00,98.39
2568.00,98.40
2567.00,98.41
2566.00,98.42
2565.00,98.42
2564.00,98.43
2563.00,98.43
2562.00,98.42
2561.00,98.42
2560.00,98.43
2559.00,98.43
2558.00,98.44
2557.00,98.44
2556.00,98.45
2555.00,98.45
2554.00,98.45
2553.00,98.45
2552.00,98.45
2551.00,98.46
2550.00,98.47
2549.00,98.47
2548.00,98.48
2547.00,98.48
2546.00,98.48
2545.00,98.48
2544.00,98.48
2543.00,98.49
2542.00,98.49
2541.00,98.49
2540.00,98.49
2539.00,98.49
2538.00,98.50
2537.00,98.50
2536.00,98.51
2535.00,98.51
2534.00,98.52
2533.00,98.52
2532.00,98.52
2531.00,98.52
2530.00,98.53
2529.00,98.53
2528.00,98.53
2527.00,98.53
2526.00,98.53
2525.00,98.53
2524.00,98.53
2523.00,98.53
2522.00,98.54
2521.00,98.55
2520.00,98.55
2519.00,98.56
2518.00,98.56
2517.00,98.56
2516.00,98.56
2515.00,98.56
2514.00,98.56
2513.00,98.56
2512.00,98.56
2511.00,98.56
2510.00,98.56
2509.00,98.57
2508.00,98.57
2507.00,98.57
2506.00,98.57
2505.00,98.57
2504.00,98.58
2503.00,98.58
2502.00,98.58
2501.00,98.57
2500.00,98.57
2499.00,98.57
2498.00,98.57
2497.00,98.57
2496.00,98.56
2495.00,98.56
2494.00,98.56
2493.00,98.55
2492.00,98.56
2491.00,98.56
2490.00,98.56
2489.00,98.56
2488.00,98.57
2487.00,98.57
2486.00,98.57
2485.00,98.57
2484.00,98.57
2483.00,98.56
2482.00,98.56
2481.00,98.56
2480.00,98.56
2479.00,98.57
2478.00,98.57
2477.00,98.58
2476.00,98.58
2475.00,98.58
2474.00,98.58
2473.00,98.59
2472.00,98.59
2471.00,98.59
2470.00,98.59
2469.00,98.59
2468.00,98.59
2467.00,98.58
2466.00,98.58
2465.00,98.58
2464.00,98.58
2463.00,98.58
2462.00,98.58
2461.00,98.57
2460.00,98.57
2459.00,98.56
2458.00,98.56
2457.00,98.55
2456.00,98.55
2455.00,98.54
2454.00,98.54
2453.00,98.54
2452.00,98.54
2451.00,98.54
2450.00,98.54
2449.00,98.54
2448.00,98.54
2447.00,98.55
2446.00,98.55
2445.00,98.55
2444.00,98.55
2443.00,98.55
2442.00,98.55
2441.00,98.55
2440.00,98.56
2439.00,98.56
2438.00,98.56
2437.00,98.56
2436.00,98.56
2435.00,98.55
2434.00,98.55
2433.00,98.55
2432.00,98.54
2431.00,98.55
2430.00,98.55
2429.00,98.55
2428.00,98.55
2427.00,98.55
2426.00,98.55
2425.00,98.55
2424.00,98.55
2423.00,98.56
2422.00,98.57
2421.00,98.58
2420.00,98.59
2419.00,98.59
2418.00,98.59
2417.00,98.59
2416.00,98.58
2415.00,98.58
2414.00,98.58
2413.00,98.58
2412.00,98.58
2411.00,98.58
2410.00,98.59
2409.00,98.59
2408.00,98.59
2407.00,98.60
2406.00,98.61
2405.00,98.62
2404.00,98.62
2403.00,98.63
2402.00,98.63
2401.00,98.62
2400.00,98.62
2399.00,98.62
2398.00,98.62
2397.00,98.62
2396.00,98.62
2395.00,98.62
2394.00,98.63
2393.00,98.63
2392.00,98.63
2391.00,98.63
2390.00,98.64
2389.00,98.64
2388.00,98.65
2387.00,98.65
2386.00,98.65
2385.00,98.65
2384.00,98.66
2383.00,98.67
2382.00,98.69
2381.00,98.70
2380.00,98.70
2379.00,98.71
2378.00,98.72
2377.00,98.73
2376.00,98.73
2375.00,98.74
2374.00,98.73
2373.00,98.73
2372.00,98.72
2371.00,98.72
2370.00,98.73
2369.00,98.74
2368.00,98.75
2367.00,98.76
2366.00,98.76
2365.00,98.76
2364.00,98.75
2363.00,98.74
2362.00,98.73
2361.00,98.72
2360.00,98.72
2359.00,98.72
2358.00,98.73
2357.00,98.74
2356.00,98.74
2355.00,98.74
2354.00,98.73
2353.00,98.73
2352.00,98.73
2351.00,98.72
2350.00,98.72
2349.00,98.74
2348.00,98.75
2347.00,98.77
2346.00,98.77
2345.00,98.76
2344.00,98.73
2343.00,98.71
2342.00,98.68
2341.00,98.67
2340.00,98.66
2339.00,98.66
2338.00,98.65
2337.00,98.65
2336.00,98.64
2335.00,98.63
2334.00,98.63
2333.00,98.64
2332.00,98.64
2331.00,98.64
2330.00,98.64
2329.00,98.62
2328.00,98.60
2327.00,98.55
2326.00,98.50
2325.00,98.44
2324.00,98.39
2323.00,98.38
2322.00,98.39
2321.00,98.42
2320.00,98.45
2319.00,98.47
2318.00,98.48
2317.00,98.50
2316.00,98.51
2315.00,98.51
2314.00,98.51
2313.00,98.51
2312.00,98.51
2311.00,98.51
2310.00,98.51
2309.00,98.50
2308.00,98.49
2307.00,98.49
2306.00,98.49
2305.00,98.49
2304.00,98.49
2303.00,98.48
2302.00,98.48
2301.00,98.47
2300.00,98.46
2299.00,98.45
2298.00,98.44
2297.00,98.43
2296.00,98.43
2295.00,98.42
2294.00,98.42
2293.00,98.41
2292.00,98.40
2291.00,98.38
2290.00,98.37
2289.00,98.35
2288.00,98.33
2287.00,98.31
2286.00,98.30
2285.00,98.30
2284.00,98.30
2283.00,98.31
2282.00,98.33
2281.00,98.35
2280.00,98.36
2279.00,98.37
2278.00,98.37
2277.00,98.36
2276.00,98.36
2275.00,98.35
2274.00,98.35
2273.00,98.36
2272.00,98.36
2271.00,98.36
2270.00,98.36
2269.00,98.35
2268.00,98.36
2267.00,98.37
2266.00,98.38
2265.00,98.39
2264.00,98.39
2263.00,98.40
2262.00,98.39
2261.00,98.39
2260.00,98.37
2259.00,98.36
2258.00,98.35
2257.00,98.35
2256.00,98.36
2255.00,98.37
2254.00,98.39
2253.00,98.40
2252.00,98.41
2251.00,98.42
2250.00,98.41
2249.00,98.40
2248.00,98.39
2247.00,98.38
2246.00,98.38
2245.00,98.38
2244.00,98.38
2243.00,98.37
2242.00,98.36
2241.00,98.36
2240.00,98.35
2239.00,98.35
2238.00,98.35
2237.00,98.35
2236.00,98.35
2235.00,98.36
2234.00,98.36
2233.00,98.36
2232.00,98.36
2231.00,98.35
2230.00,98.35
2229.00,98.34
2228.00,98.35
2227.00,98.35
2226.00,98.36
2225.00,98.37
2224.00,98.36
2223.00,98.34
2222.00,98.33
2221.00,98.32
2220.00,98.33
2219.00,98.33
2218.00,98.33
2217.00,98.33
2216.00,98.33
2215.00,98.32
2214.00,98.32
2213.00,98.32
2212.00,98.32
2211.00,98.32
2210.00,98.32
2209.00,98.32
2208.00,98.32
2207.00,98.32
2206.00,98.31
2205.00,98.31
2204.00,98.31
2203.00,98.31
2202.00,98.30
2201.00,98.29
2200.00,98.28
2199.00,98.28
2198.00,98.27
2197.00,98.27
2196.00,98.26
2195.00,98.26
2194.00,98.25
2193.00,98.23
2192.00,98.22
2191.00,98.21
2190.00,98.20
2189.00,98.20
2188.00,98.21
2187.00,98.21
2186.00,98.21
2185.00,98.21
2184.00,98.21
2183.00,98.23
2182.00,98.26
2181.00,98.28
2180.00,98.29
2179.00,98.27
2178.00,98.24
2177.00,98.23
2176.00,98.25
2175.00,98.28
2174.00,98.29
2173.00,98.29
2172.00,98.26
2171.00,98.23
2170.00,98.19
2169.00,98.14
2168.00,98.09
2167.00,98.06
2166.00,98.04
2165.00,98.02
2164.00,97.99
2163.00,97.95
2162.00,97.91
2161.00,97.94
2160.00,98.08
2159.00,98.32
2158.00,98.55
2157.00,98.70
2156.00,98.74
2155.00,98.73
2154.00,98.70
2153.00,98.67
2152.00,98.65
2151.00,98.63
2150.00,98.60
2149.00,98.58
2148.00,98.58
2147.00,98.59
2146.00,98.60
2145.00,98.61
2144.00,98.61
2143.00,98.61
2142.00,98.61
2141.00,98.61
2140.00,98.60
2139.00,98.60
2138.00,98.60
2137.00,98.62
2136.00,98.64
2135.00,98.68
2134.00,98.71
2133.00,98.73
2132.00,98.73
2131.00,98.72
2130.00,98.70
2129.00,98.68
2128.00,98.66
2127.00,98.64
2126.00,98.61
2125.00,98.59
2124.00,98.57
2123.00,98.56
2122.00,98.56
2121.00,98.56
2120.00,98.55
2119.00,98.54
2118.00,98.52
2117.00,98.49
2116.00,98.47
2115.00,98.44
2114.00,98.42
2113.00,98.41
2112.00,98.40
2111.00,98.40
2110.00,98.41
2109.00,98.42
2108.00,98.43
2107.00,98.44
2106.00,98.45
2105.00,98.45
2104.00,98.44
2103.00,98.44
2102.00,98.43
2101.00,98.42
2100.00,98.41
2099.00,98.40
2098.00,98.40
2097.00,98.42
2096.00,98.46
2095.00,98.50
2094.00,98.53
2093.00,98.53
2092.00,98.52
2091.00,98.49
2090.00,98.46
2089.00,98.44
2088.00,98.43
2087.00,98.42
2086.00,98.41
2085.00,98.39
2084.00,98.38
2083.00,98.38
2082.00,98.38
2081.00,98.39
2080.00,98.39
2079.00,98.39
2078.00,98.38
2077.00,98.37
2076.00,98.37
2075.00,98.37
2074.00,98.36
2073.00,98.36
2072.00,98.35
2071.00,98.36
2070.00,98.37
2069.00,98.38
2068.00,98.40
2067.00,98.40
2066.00,98.39
2065.00,98.38
2064.00,98.37
2063.00,98.36
2062.00,98.37
2061.00,98.37
2060.00,98.36
2059.00,98.36
2058.00,98.35
2057.00,98.34
2056.00,98.33
2055.00,98.34
2054.00,98.34
2053.00,98.31
2052.00,98.24
2051.00,98.17
2050.00,98.14
2049.00,98.15
2048.00,98.20
2047.00,98.23
2046.00,98.24
2045.00,98.23
2044.00,98.22
2043.00,98.22
2042.00,98.22
2041.00,98.22
2040.00,98.21
2039.00,98.18
2038.00,98.15
2037.00,98.13
2036.00,98.12
2035.00,98.14
2034.00,98.17
2033.00,98.20
2032.00,98.24
2031.00,98.26
2030.00,98.28
2029.00,98.29
2028.00,98.31
2027.00,98.32
2026.00,98.32
2025.00,98.31
2024.00,98.30
2023.00,98.30
2022.00,98.31
2021.00,98.32
2020.00,98.31
2019.00,98.30
2018.00,98.29
2017.00,98.28
2016.00,98.30
2015.00,98.32
2014.00,98.34
2013.00,98.34
2012.00,98.32
2011.00,98.29
2010.00,98.27
2009.00,98.30
2008.00,98.36
2007.00,98.43
2006.00,98.48
2005.00,98.49
2004.00,98.48
2003.00,98.45
2002.00,98.43
2001.00,98.41
2000.00,98.41
1999.00,98.40
1998.00,98.39
1997.00,98.37
1996.00,98.35
1995.00,98.33
1994.00,98.32
1993.00,98.32
1992.00,98.32
1991.00,98.30
1990.00,98.28
1989.00,98.25
1988.00,98.23
1987.00,98.21
1986.00,98.20
1985.00,98.19
1984.00,98.17
1983.00,98.15
1982.00,98.11
1981.00,98.06
1980.00,98.02
1979.00,98.04
1978.00,98.11
1977.00,98.20
1976.00,98.28
1975.00,98.33
1974.00,98.35
1973.00,98.36
1972.00,98.37
1971.00,98.39
1970.00,98.40
1969.00,98.42
1968.00,98.42
1967.00,98.42
1966.00,98.42
1965.00,98.42
1964.00,98.42
1963.00,98.43
1962.00,98.45
1961.00,98.47
1960.00,98.50
1959.00,98.52
1958.00,98.53
1957.00,98.53
1956.00,98.51
1955.00,98.49
1954.00,98.48
1953.00,98.48
1952.00,98.48
1951.00,98.49
1950.00,98.50
1949.00,98.51
1948.00,98.52
1947.00,98.53
1946.00,98.54
1945.00,98.54
1944.00,98.54
1943.00,98.53
1942.00,98.53
1941.00,98.52
1940.00,98.52
1939.00,98.52
1938.00,98.53
1937.00,98.53
1936.00,98.52
1935.00,98.52
1934.00,98.53
1933.00,98.53
1932.00,98.53
1931.00,98.53
1930.00,98.53
1929.00,98.53
1928.00,98.53
1927.00,98.53
1926.00,98.53
1925.00,98.54
1924.00,98.54
1923.00,98.55
1922.00,98.54
1921.00,98.54
1920.00,98.53
1919.00,98.52
1918.00,98.51
1917.00,98.51
1916.00,98.51
1915.00,98.51
1914.00,98.51
1913.00,98.50
1912.00,98.50
1911.00,98.51
1910.00,98.51
1909.00,98.52
1908.00,98.52
1907.00,98.52
1906.00,98.52
1905.00,98.52
1904.00,98.52
1903.00,98.52
1902.00,98.52
1901.00,98.52
1900.00,98.53
1899.00,98.54
1898.00,98.54
1897.00,98.54
1896.00,98.53
1895.00,98.53
1894.00,98.52
1893.00,98.52
1892.00,98.52
1891.00,98.52
1890.00,98.53
1889.00,98.53
1888.00,98.53
1887.00,98.53
1886.00,98.53
1885.00,98.53
1884.00,98.54
1883.00,98.54
1882.00,98.55
1881.00,98.55
1880.00,98.55
1879.00,98.55
1878.00,98.55
1877.00,98.55
1876.00,98.55
1875.00,98.54
1874.00,98.54
1873.00,98.54
1872.00,98.54
1871.00,98.54
1870.00,98.54
1869.00,98.54
1868.00,98.54
1867.00,98.55
1866.00,98.56
1865.00,98.56
1864.00,98.56
1863.00,98.55
1862.00,98.55
1861.00,98.55
1860.00,98.55
1859.00,98.56
1858.00,98.56
1857.00,98.55
1856.00,98.55
1855.00,98.55
1854.00,98.55
1853.00,98.55
1852.00,98.55
1851.00,98.55
1850.00,98.56
1849.00,98.55
1848.00,98.55
1847.00,98.55
1846.00,98.55
1845.00,98.55
1844.00,98.55
1843.00,98.56
1842.00,98.56
1841.00,98.55
1840.00,98.55
1839.00,98.55
1838.00,98.56
1837.00,98.56
1836.00,98.56
1835.00,98.57
1834.00,98.57
1833.00,98.56
1832.00,98.56
1831.00,98.56
1830.00,98.56
1829.00,98.56
1828.00,98.55
1827.00,98.55
1826.00,98.55
1825.00,98.55
1824.00,98.55
1823.00,98.55
1822.00,98.56
1821.00,98.56
1820.00,98.57
1819.00,98.60
1818.00,98.62
1817.00,98.64
1816.00,98.64
1815.00,98.64
1814.00,98.63
1813.00,98.62
1812.00,98.62
1811.00,98.61
1810.00,98.61
1809.00,98.60
1808.00,98.59
1807.00,98.59
1806.00,98.59
1805.00,98.58
1804.00,98.58
1803.00,98.58
1802.00,98.58
1801.00,98.59
1800.00,98.58
1799.00,98.58
1798.00,98.57
1797.00,98.57
1796.00,98.56
1795.00,98.56
1794.00,98.57
1793.00,98.57
1792.00,98.57
1791.00,98.57
1790.00,98.56
1789.00,98.56
1788.00,98.56
1787.00,98.56
1786.00,98.57
1785.00,98.57
1784.00,98.57
1783.00,98.57
1782.00,98.57
1781.00,98.57
1780.00,98.57
1779.00,98.56
1778.00,98.56
1777.00,98.57
1776.00,98.57
1775.00,98.58
1774.00,98.58
1773.00,98.58
1772.00,98.57
1771.00,98.56
1770.00,98.56
1769.00,98.55
1768.00,98.55
1767.00,98.56
1766.00,98.56
1765.00,98.55
1764.00,98.55
1763.00,98.54
1762.00,98.54
1761.00,98.55
1760.00,98.55
1759.00,98.54
1758.00,98.54
1757.00,98.54
1756.00,98.54
1755.00,98.54
1754.00,98.53
1753.00,98.53
1752.00,98.53
1751.00,98.53
1750.00,98.53
1749.00,98.53
1748.00,98.52
1747.00,98.52
1746.00,98.51
1745.00,98.51
1744.00,98.51
1743.00,98.51
1742.00,98.51
1741.00,98.51
1740.00,98.51
1739.00,98.51
1738.00,98.52
1737.00,98.52
1736.00,98.52
1735.00,98.51
1734.00,98.51
1733.00,98.50
1732.00,98.51
1731.00,98.51
1730.00,98.51
1729.00,98.51
1728.00,98.51
1727.00,98.51
1726.00,98.51
1725.00,98.51
1724.00,98.51
1723.00,98.51
1722.00,98.50
1721.00,98.50
1720.00,98.49
1719.00,98.49
1718.00,98.49
1717.00,98.49
1716.00,98.48
1715.00,98.48
1714.00,98.47
1713.00,98.47
1712.00,98.48
1711.00,98.48
1710.00,98.48
1709.00,98.47
1708.00,98.47
1707.00,98.46
1706.00,98.46
1705.00,98.46
1704.00,98.46
1703.00,98.46
1702.00,98.45
1701.00,98.45
1700.00,98.45
1699.00,98.45
1698.00,98.45
1697.00,98.45
1696.00,98.45
1695.00,98.46
1694.00,98.46
1693.00,98.46
1692.00,98.46
1691.00,98.46
1690.00,98.45
1689.00,98.45
1688.00,98.45
1687.00,98.45
1686.00,98.45
1685.00,98.45
1684.00,98.45
1683.00,98.45
1682.00,98.45
1681.00,98.44
1680.00,98.44
1679.00,98.44
1678.00,98.45
1677.00,98.45
1676.00,98.45
1675.00,98.45
1674.00,98.46
1673.00,98.46
1672.00,98.45
1671.00,98.45
1670.00,98.45
1669.00,98.44
1668.00,98.44
1667.00,98.44
1666.00,98.44
1665.00,98.44
1664.00,98.45
1663.00,98.45
1662.00,98.45
1661.00,98.45
1660.00,98.45
1659.00,98.45
1658.00,98.45
1657.00,98.45
1656.00,98.45
1655.00,98.44
1654.00,98.43
1653.00,98.42
1652.00,98.42
1651.00,98.42
1650.00,98.42
1649.00,98.42
1648.00,98.42
1647.00,98.43
1646.00,98.43
1645.00,98.43
1644.00,98.43
1643.00,98.43
1642.00,98.43
1641.00,98.43
1640.00,98.43
1639.00,98.43
1638.00,98.44
1637.00,98.44
1636.00,98.43
1635.00,98.43
1634.00,98.43
1633.00,98.42
1632.00,98.42
1631.00,98.42
1630.00,98.43
1629.00,98.42
1628.00,98.42
1627.00,98.42
1626.00,98.42
1625.00,98.42
1624.00,98.43
1623.00,98.43
1622.00,98.43
1621.00,98.44
1620.00,98.44
1619.00,98.44
1618.00,98.44
1617.00,98.44
1616.00,98.45
1615.00,98.45
1614.00,98.45
1613.00,98.45
1612.00,98.45
1611.00,98.45
1610.00,98.45
1609.00,98.44
1608.00,98.44
1607.00,98.44
1606.00,98.45
1605.00,98.45
1604.00,98.45
1603.00,98.45
1602.00,98.46
1601.00,98.46
1600.00,98.46
1599.00,98.46
1598.00,98.46
1597.00,98.46
1596.00,98.46
1595.00,98.47
1594.00,98.47
1593.00,98.47
1592.00,98.46
1591.00,98.46
1590.00,98.47
1589.00,98.47
1588.00,98.47
1587.00,98.46
1586.00,98.46
1585.00,98.46
1584.00,98.46
1583.00,98.46
1582.00,98.46
1581.00,98.46
1580.00,98.46
1579.00,98.46
1578.00,98.46
1577.00,98.45
1576.00,98.45
1575.00,98.45
1574.00,98.45
1573.00,98.45
1572.00,98.45
1571.00,98.46
1570.00,98.46
1569.00,98.46
1568.00,98.45
1567.00,98.45
1566.00,98.45
1565.00,98.45
1564.00,98.45
1563.00,98.45
1562.00,98.45
1561.00,98.45
1560.00,98.45
1559.00,98.44
1558.00,98.44
1557.00,98.44
1556.00,98.44
1555.00,98.44
1554.00,98.45
1553.00,98.45
1552.00,98.44
1551.00,98.44
1550.00,98.44
1549.00,98.43
1548.00,98.43
1547.00,98.43
1546.00,98.43
1545.00,98.43
1544.00,98.43
1543.00,98.43
1542.00,98.44
1541.00,98.44
1540.00,98.45
1539.00,98.45
1538.00,98.46
1537.00,98.45
1536.00,98.44
1535.00,98.44
1534.00,98.45
1533.00,98.45
1532.00,98.45
1531.00,98.45
1530.00,98.45
1529.00,98.45
1528.00,98.45
1527.00,98.46
1526.00,98.46
1525.00,98.45
1524.00,98.45
1523.00,98.45
1522.00,98.45
1521.00,98.44
1520.00,98.44
1519.00,98.44
1518.00,98.44
1517.00,98.43
1516.00,98.43
1515.00,98.43
1514.00,98.43
1513.00,98.42
1512.00,98.41
1511.00,98.41
1510.00,98.40
1509.00,98.39
1508.00,98.38
1507.00,98.38
1506.00,98.38
1505.00,98.37
1504.00,98.36
1503.00,98.36
1502.00,98.36
1501.00,98.34
1500.00,98.33
1499.00,98.32
1498.00,98.31
1497.00,98.29
1496.00,98.27
1495.00,98.26
1494.00,98.25
1493.00,98.23
1492.00,98.21
1491.00,98.19
1490.00,98.17
1489.00,98.13
1488.00,98.10
1487.00,98.07
1486.00,98.04
1485.00,97.99
1484.00,97.93
1483.00,97.87
1482.00,97.80
1481.00,97.71
1480.00,97.62
1479.00,97.52
1478.00,97.40
1477.00,97.23
1476.00,97.02
1475.00,96.79
1474.00,96.46
1473.00,95.98
1472.00,95.40
1471.00,94.84
1470.00,94.32
1469.00,93.76
1468.00,93.17
1467.00,92.51
1466.00,91.76
1465.00,90.95
1464.00,90.24
1463.00,89.75
1462.00,89.42
1461.00,89.16
1460.00,88.97
1459.00,88.80
1458.00,88.62
1457.00,88.43
1456.00,88.32
1455.00,88.29
1454.00,88.31
1453.00,88.36
1452.00,88.49
1451.00,88.72
1450.00,89.09
1449.00,89.64
1448.00,90.38
1447.00,91.20
1446.00,91.97
1445.00,92.65
1444.00,93.25
1443.00,93.75
1442.00,94.13
1441.00,94.38
1440.00,94.54
1439.00,94.59
1438.00,94.57
1437.00,94.54
1436.00,94.62
1435.00,94.84
1434.00,95.19
1433.00,95.60
1432.00,96.04
1431.00,96.44
1430.00,96.74
1429.00,96.97
1428.00,97.13
1427.00,97.24
1426.00,97.32
1425.00,97.40
1424.00,97.47
1423.00,97.51
1422.00,97.54
1421.00,97.58
1420.00,97.62
1419.00,97.65
1418.00,97.67
1417.00,97.69
1416.00,97.71
1415.00,97.73
1414.00,97.74
1413.00,97.75
1412.00,97.78
1411.00,97.79
1410.00,97.79
1409.00,97.81
1408.00,97.82
1407.00,97.82
1406.00,97.81
1405.00,97.81
1404.00,97.82
1403.00,97.82
1402.00,97.81
1401.00,97.81
1400.00,97.81
1399.00,97.80
1398.00,97.78
1397.00,97.77
1396.00,97.76
1395.00,97.73
1394.00,97.69
1393.00,97.66
1392.00,97.61
1391.00,97.55
1390.00,97.45
1389.00,97.31
1388.00,97.09
1387.00,96.76
1386.00,96.30
1385.00,95.71
1384.00,94.90
1383.00,93.78
1382.00,92.33
1381.00,90.55
1380.00,88.45
1379.00,86.24
1378.00,84.28
1377.00,82.95
1376.00,82.55
1375.00,83.22
1374.00,84.80
1373.00,86.79
1372.00,88.73
1371.00,90.44
1370.00,91.91
1369.00,93.10
1368.00,93.96
1367.00,94.51
1366.00,94.82
1365.00,94.95
1364.00,94.93
1363.00,94.80
1362.00,94.60
1361.00,94.39
1360.00,94.25
1359.00,94.22
1358.00,94.34
1357.00,94.60
1356.00,94.95
1355.00,95.34
1354.00,95.71
1353.00,96.03
1352.00,96.28
1351.00,96.50
1350.00,96.68
1349.00,96.82
1348.00,96.95
1347.00,97.05
1346.00,97.14
1345.00,97.21
1344.00,97.27
1343.00,97.32
1342.00,97.36
1341.00,97.39
1340.00,97.42
1339.00,97.43
1338.00,97.44
1337.00,97.44
1336.00,97.44
1335.00,97.42
1334.00,97.39
1333.00,97.36
1332.00,97.31
1331.00,97.28
1330.00,97.27
1329.00,97.28
1328.00,97.31
1327.00,97.36
1326.00,97.41
1325.00,97.47
1324.00,97.53
1323.00,97.58
1322.00,97.63
1321.00,97.66
1320.00,97.69
1319.00,97.72
1318.00,97.74
1317.00,97.76
1316.00,97.78
1315.00,97.79
1314.00,97.80
1313.00,97.80
1312.00,97.80
1311.00,97.78
1310.00,97.74
1309.00,97.67
1308.00,97.57
1307.00,97.44
1306.00,97.32
1305.00,97.24
1304.00,97.22
1303.00,97.25
1302.00,97.31
1301.00,97.36
1300.00,97.39
1299.00,97.41
1298.00,97.40
1297.00,97.40
1296.00,97.41
1295.00,97.44
1294.00,97.48
1293.00,97.53
1292.00,97.58
1291.00,97.64
1290.00,97.68
1289.00,97.72
1288.00,97.75
1287.00,97.78
1286.00,97.81
1285.00,97.84
1284.00,97.86
1283.00,97.88
1282.00,97.90
1281.00,97.92
1280.00,97.94
1279.00,97.95
1278.00,97.96
1277.00,97.97
1276.00,97.98
1275.00,97.99
1274.00,98.00
1273.00,98.01
1272.00,98.01
1271.00,98.02
1270.00,98.03
1269.00,98.03
1268.00,98.03
1267.00,98.03
1266.00,98.03
1265.00,98.02
1264.00,98.01
1263.00,97.99
1262.00,97.96
1261.00,97.91
1260.00,97.85
1259.00,97.78
1258.00,97.70
1257.00,97.65
1256.00,97.63
1255.00,97.67
1254.00,97.76
1253.00,97.88
1252.00,98.00
1251.00,98.10
1250.00,98.19
1249.00,98.26
1248.00,98.31
1247.00,98.36
1246.00,98.39
1245.00,98.42
1244.00,98.45
1243.00,98.47
1242.00,98.49
1241.00,98.51
1240.00,98.53
1239.00,98.55
1238.00,98.55
1237.00,98.55
1236.00,98.55
1235.00,98.55
1234.00,98.54
1233.00,98.53
1232.00,98.52
1231.00,98.51
1230.00,98.50
1229.00,98.48
1228.00,98.46
1227.00,98.43
1226.00,98.39
1225.00,98.35
1224.00,98.32
1223.00,98.29
1222.00,98.26
1221.00,98.24
1220.00,98.22
1219.00,98.20
1218.00,98.20
1217.00,98.20
1216.00,98.21
1215.00,98.23
1214.00,98.25
1213.00,98.27
1212.00,98.28
1211.00,98.29
1210.00,98.30
1209.00,98.31
1208.00,98.32
1207.00,98.32
1206.00,98.32
1205.00,98.32
1204.00,98.31
1203.00,98.31
1202.00,98.31
1201.00,98.31
1200.00,98.31
1199.00,98.30
1198.00,98.29
1197.00,98.29
1196.00,98.28
1195.00,98.28
1194.00,98.28
1193.00,98.27
1192.00,98.27
1191.00,98.26
1190.00,98.26
1189.00,98.26
1188.00,98.25
1187.00,98.24
1186.00,98.23
1185.00,98.22
1184.00,98.20
1183.00,98.18
1182.00,98.14
1181.00,98.09
1180.00,98.04
1179.00,97.97
1178.00,97.88
1177.00,97.76
1176.00,97.60
1175.00,97.39
1174.00,97.12
1173.00,96.80
1172.00,96.44
1171.00,96.07
1170.00,95.75
1169.00,95.53
1168.00,95.44
1167.00,95.47
1166.00,95.60
1165.00,95.78
1164.00,95.98
1163.00,96.17
1162.00,96.33
1161.00,96.47
1160.00,96.57
1159.00,96.65
1158.00,96.71
1157.00,96.74
1156.00,96.77
1155.00,96.78
1154.00,96.81
1153.00,96.84
1152.00,96.89
1151.00,96.97
1150.00,97.07
1149.00,97.17
1148.00,97.27
1147.00,97.37
1146.00,97.47
1145.00,97.55
1144.00,97.63
1143.00,97.70
1142.00,97.76
1141.00,97.82
1140.00,97.88
1139.00,97.93
1138.00,97.97
1137.00,98.00
1136.00,98.03
1135.00,98.05
1134.00,98.06
1133.00,98.08
1132.00,98.09
1131.00,98.11
1130.00,98.11
1129.00,98.12
1128.00,98.12
1127.00,98.12
1126.00,98.12
1125.00,98.12
1124.00,98.12
1123.00,98.12
1122.00,98.12
1121.00,98.11
1120.00,98.10
1119.00,98.09
1118.00,98.08
1117.00,98.07
1116.00,98.05
1115.00,98.04
1114.00,98.02
1113.00,98.01
1112.00,97.99
1111.00,97.96
1110.00,97.92
1109.00,97.87
1108.00,97.81
1107.00,97.73
1106.00,97.66
1105.00,97.59
1104.00,97.54
1103.00,97.51
1102.00,97.53
1101.00,97.56
1100.00,97.62
1099.00,97.68
1098.00,97.74
1097.00,97.80
1096.00,97.85
1095.00,97.89
1094.00,97.92
1093.00,97.94
1092.00,97.96
1091.00,97.97
1090.00,97.99
1089.00,98.01
1088.00,98.03
1087.00,98.04
1086.00,98.05
1085.00,98.04
1084.00,98.04
1083.00,98.04
1082.00,98.04
1081.00,98.04
1080.00,98.05
1079.00,98.05
1078.00,98.05
1077.00,98.05
1076.00,98.06
1075.00,98.07
1074.00,98.08
1073.00,98.09
1072.00,98.09
1071.00,98.09
1070.00,98.09
1069.00,98.09
1068.00,98.09
1067.00,98.10
1066.00,98.09
1065.00,98.09
1064.00,98.10
1063.00,98.09
1062.00,98.09
1061.00,98.08
1060.00,98.08
1059.00,98.07
1058.00,98.06
1057.00,98.05
1056.00,98.03
1055.00,98.02
1054.00,98.00
1053.00,97.98
1052.00,97.96
1051.00,97.94
1050.00,97.91
1049.00,97.88
1048.00,97.83
1047.00,97.80
1046.00,97.78
1045.00,97.78
1044.00,97.80
1043.00,97.82
1042.00,97.85
1041.00,97.88
1040.00,97.90
1039.00,97.90
1038.00,97.91
1037.00,97.91
1036.00,97.91
1035.00,97.92
1034.00,97.93
1033.00,97.95
1032.00,97.97
1031.00,97.98
1030.00,97.98
1029.00,97.98
1028.00,97.98
1027.00,97.98
1026.00,97.98
1025.00,97.97
1024.00,97.97
1023.00,97.96
1022.00,97.96
1021.00,97.95
1020.00,97.93
1019.00,97.92
1018.00,97.90
1017.00,97.89
1016.00,97.87
1015.00,97.85
1014.00,97.83
1013.00,97.81
1012.00,97.78
1011.00,97.75
1010.00,97.70
1009.00,97.64
1008.00,97.57
1007.00,97.47
1006.00,97.34
1005.00,97.18
1004.00,96.95
1003.00,96.63
1002.00,96.22
1001.00,95.73
1000.00,95.24
999.00,94.86
998.00,94.70
997.00,94.80
996.00,95.13
995.00,95.59
994.00,96.07
993.00,96.48
992.00,96.80
991.00,97.04
990.00,97.22
989.00,97.34
988.00,97.42
987.00,97.46
986.00,97.47
985.00,97.45
984.00,97.40
983.00,97.31
982.00,97.18
981.00,96.97
980.00,96.69
979.00,96.31
978.00,95.84
977.00,95.30
976.00,94.75
975.00,94.27
974.00,93.96
973.00,93.90
972.00,94.12
971.00,94.59
970.00,95.18
969.00,95.77
968.00,96.26
967.00,96.65
966.00,96.92
965.00,97.13
964.00,97.28
963.00,97.39
962.00,97.48
961.00,97.56
960.00,97.63
959.00,97.68
958.00,97.72
957.00,97.75
956.00,97.77
955.00,97.80
954.00,97.82
953.00,97.84
952.00,97.86
951.00,97.87
950.00,97.88
949.00,97.89
948.00,97.89
947.00,97.89
946.00,97.87
945.00,97.85
944.00,97.80
943.00,97.76
942.00,97.72
941.00,97.70
940.00,97.71
939.00,97.74
938.00,97.80
937.00,97.86
936.00,97.92
935.00,97.96
934.00,98.00
933.00,98.02
932.00,98.03
931.00,98.04
930.00,98.05
929.00,98.06
928.00,98.06
927.00,98.07
926.00,98.08
925.00,98.09
924.00,98.10
923.00,98.10
922.00,98.10
921.00,98.10
920.00,98.09
919.00,98.07
918.00,98.06
917.00,98.05
916.00,98.05
915.00,98.05
914.00,98.04
913.00,98.03
912.00,98.02
911.00,98.00
910.00,97.98
909.00,97.96
908.00,97.91
907.00,97.84
906.00,97.73
905.00,97.58
904.00,97.38
903.00,97.15
902.00,96.92
901.00,96.72
900.00,96.61
899.00,96.60
898.00,96.70
897.00,96.88
896.00,97.11
895.00,97.32
894.00,97.49
893.00,97.61
892.00,97.69
891.00,97.75
890.00,97.78
889.00,97.81
888.00,97.84
887.00,97.87
886.00,97.90
885.00,97.93
884.00,97.94
883.00,97.95
882.00,97.95
881.00,97.95
880.00,97.94
879.00,97.94
878.00,97.93
877.00,97.92
876.00,97.92
875.00,97.91
874.00,97.91
873.00,97.91
872.00,97.91
871.00,97.91
870.00,97.91
869.00,97.89
868.00,97.87
867.00,97.86
866.00,97.84
865.00,97.83
864.00,97.82
863.00,97.81
862.00,97.80
861.00,97.80
860.00,97.79
859.00,97.77
858.00,97.75
857.00,97.73
856.00,97.69
855.00,97.65
854.00,97.62
853.00,97.58
852.00,97.55
851.00,97.51
850.00,97.45
849.00,97.37
848.00,97.23
847.00,97.03
846.00,96.73
845.00,96.29
844.00,95.68
843.00,95.04
842.00,94.57
841.00,94.49
840.00,94.82
839.00,95.42
838.00,96.05
837.00,96.55
836.00,96.87
835.00,97.07
834.00,97.19
833.00,97.28
832.00,97.34
831.00,97.40
830.00,97.45
829.00,97.49
828.00,97.53
827.00,97.56
826.00,97.58
825.00,97.59
824.00,97.59
823.00,97.59
822.00,97.58
821.00,97.56
820.00,97.54
819.00,97.52
818.00,97.47
817.00,97.39
816.00,97.27
815.00,97.11
814.00,96.91
813.00,96.68
812.00,96.43
811.00,96.22
810.00,96.09
809.00,96.06
808.00,96.14
807.00,96.32
806.00,96.54
805.00,96.77
804.00,96.97
803.00,97.13
802.00,97.24
801.00,97.33
800.00,97.39
799.00,97.43
798.00,97.47
797.00,97.50
796.00,97.53
795.00,97.57
794.00,97.60
793.00,97.64
792.00,97.67
791.00,97.70
790.00,97.73
789.00,97.76
788.00,97.79
787.00,97.81
786.00,97.83
785.00,97.85
784.00,97.88
783.00,97.91
782.00,97.93
781.00,97.95
780.00,97.95
779.00,97.96
778.00,97.96
777.00,97.96
776.00,97.97
775.00,97.97
774.00,97.98
773.00,97.99
772.00,97.99
771.00,97.97
770.00,97.95
769.00,97.94
768.00,97.95
767.00,97.97
766.00,97.98
765.00,97.99
764.00,97.99
763.00,97.98
762.00,97.98
761.00,97.98
760.00,97.99
759.00,98.01
758.00,98.02
757.00,98.03
756.00,98.02
755.00,98.01
754.00,98.00
753.00,98.00
752.00,98.00
751.00,98.00
750.00,98.00
749.00,98.01
748.00,98.02
747.00,98.02
746.00,98.01
745.00,97.99
744.00,97.98
743.00,97.98
742.00,97.99
741.00,97.99
740.00,98.00
739.00,98.00
738.00,98.00
737.00,97.99
736.00,97.98
735.00,97.97
734.00,97.97
733.00,97.97
732.00,97.98
731.00,97.98
730.00,97.98
729.00,97.98
728.00,97.97
727.00,97.95
726.00,97.94
725.00,97.95
724.00,97.97
723.00,98.00
722.00,98.01
721.00,98.01
720.00,98.00
719.00,97.99
718.00,97.99
717.00,97.98
716.00,97.98
715.00,97.98
714.00,97.98
713.00,97.98
712.00,97.97
711.00,97.96
710.00,97.95
709.00,97.95
708.00,97.94
707.00,97.94
706.00,97.94
705.00,97.96
704.00,97.97
703.00,97.98
702.00,97.97
701.00,97.96
700.00,97.94
699.00,97.94
698.00,97.94
697.00,97.94
696.00,97.95
695.00,97.96
694.00,97.98
693.00,97.99
692.00,98.00
691.00,98.00
690.00,97.99
689.00,97.98
688.00,97.97
687.00,97.96
686.00,97.94
685.00,97.93
684.00,97.94
683.00,97.95
682.00,97.96
681.00,97.95
680.00,97.93
679.00,97.91
678.00,97.90
677.00,97.91
676.00,97.92
675.00,97.94
674.00,97.93
673.00,97.92
672.00,97.91
671.00,97.93
670.00,97.97
669.00,97.97
668.00,97.92
667.00,97.87
666.00,97.86
665.00,97.87
664.00,97.88
663.00,97.88
662.00,97.89
661.00,97.89
660.00,97.90
659.00,97.90
658.00,97.88
657.00,97.86
656.00,97.83
655.00,97.83
654.00,97.84
653.00,97.87
652.00,97.89
651.00,97.89
650.00,97.86
