Created as New Dataset,PP film GF
cm-1,%T
4000.00,99.82
3999.00,99.82
3998.00,99.82
3997.00,99.82
3996.00,99.82
3995.00,99.82
3994.00,99.82
3993.00,99.82
3992.00,99.82
3991.00,99.82
3990.00,99.82
3989.00,99.82
3988.00,99.83
3987.00,99.83
3986.00,99.83
3985.00,99.83
3984.00,99.84
3983.00,99.84
3982.00,99.84
3981.00,99.84
3980.00,99.84
3979.00,99.84
3978.00,99.84
3977.00,99.84
3976.00,99.85
3975.00,99.85
3974.00,99.85
3973.00,99.85
3972.00,99.85
3971.00,99.85
3970.00,99.85
3969.00,99.85
3968.00,99.85
3967.00,99.85
3966.00,99.85
3965.00,99.85
3964.00,99.85
3963.00,99.85
3962.00,99.85
3961.00,99.85
3960.00,99.85
3959.00,99.85
3958.00,99.85
3957.00,99.85
3956.00,99.85
3955.00,99.85
3954.00,99.85
3953.00,99.85
3952.00,99.85
3951.00,99.86
3950.00,99.86
3949.00,99.85
3948.00,99.85
3947.00,99.85
3946.00,99.85
3945.00,99.85
3944.00,99.86
3943.00,99.85
3942.00,99.85
3941.00,99.85
3940.00,99.85
3939.00,99.85
3938.00,99.84
3937.00,99.84
3936.00,99.84
3935.00,99.84
3934.00,99.84
3933.00,99.84
3932.00,99.84
3931.00,99.84
3930.00,99.84
3929.00,99.84
3928.00,99.84
3927.00,99.84
3926.00,99.84
3925.00,99.84
3924.00,99.83
3923.00,99.83
3922.00,99.83
3921.00,99.83
3920.00,99.83
3919.00,99.84
3918.00,99.84
3917.00,99.84
3916.00,99.84
3915.00,99.84
3914.00,99.84
3913.00,99.84
3912.00,99.84
3911.00,99.84
3910.00,99.84
3909.00,99.84
3908.00,99.84
3907.00,99.84
3906.00,99.84
3905.00,99.83
3904.00,99.83
3903.00,99.83
3902.00,99.83
3901.00,99.83
3900.00,99.84
3899.00,99.84
3898.00,99.84
3897.00,99.85
3896.00,99.85
3895.00,99.84
3894.00,99.84
3893.00,99.84
3892.00,99.84
3891.00,99.84
3890.00,99.84
3889.00,99.84
3888.00,99.84
3887.00,99.84
3886.00,99.84
3885.00,99.83
3884.00,99.82
3883.00,99.82
3882.00,99.83
3881.00,99.83
3880.00,99.83
3879.00,99.83
3878.00,99.82
3877.00,99.82
3876.00,99.82
3875.00,99.82
3874.00,99.82
3873.00,99.82
3872.00,99.82
3871.00,99.82
3870.00,99.82
3869.00,99.82
3868.00,99.82
3867.00,99.83
3866.00,99.83
3865.00,99.84
3864.00,99.84
3863.00,99.84
3862.00,99.84
3861.00,99.84
3860.00,99.84
3859.00,99.84
3858.00,99.83
3857.00,99.83
3856.00,99.82
3855.00,99.82
3854.00,99.82
3853.00,99.82
3852.00,99.82
3851.00,99.82
3850.00,99.83
3849.00,99.83
3848.00,99.83
3847.00,99.83
3846.00,99.83
3845.00,99.83
3844.00,99.83
3843.00,99.82
3842.00,99.82
3841.00,99.82
3840.00,99.81
3839.00,99.81
3838.00,99.81
3837.00,99.82
3836.00,99.82
3835.00,99.82
3834.00,99.82
3833.00,99.82
3832.00,99.83
3831.00,99.83
3830.00,99.83
3829.00,99.83
3828.00,99.83
3827.00,99.82
3826.00,99.82
3825.00,99.82
3824.00,99.82
3823.00,99.82
3822.00,99.82
3821.00,99.81
3820.00,99.81
3819.00,99.81
3818.00,99.81
3817.00,99.82
3816.00,99.82
3815.00,99.83
3814.00,99.83
3813.00,99.83
3812.00,99.82
3811.00,99.82
3810.00,99.82
3809.00,99.82
3808.00,99.82
3807.00,99.82
3806.00,99.82
3805.00,99.81
3804.00,99.81
3803.00,99.81
3802.00,99.81
3801.00,99.81
3800.00,99.81
3799.00,99.81
3798.00,99.82
3797.00,99.82
3796.00,99.82
3795.00,99.83
3794.00,99.83
3793.00,99.83
3792.00,99.83
3791.00,99.82
3790.00,99.82
3789.00,99.82
3788.00,99.82
3787.00,99.82
3786.00,99.82
3785.00,99.82
3784.00,99.82
3783.00,99.81
3782.00,99.81
3781.00,99.81
3780.00,99.81
3779.00,99.81
3778.00,99.81
3777.00,99.81
3776.00,99.81
3775.00,99.81
3774.00,99.81
3773.00,99.80
3772.00,99.80
3771.00,99.79
3770.00,99.79
3769.00,99.78
3768.00,99.78
3767.00,99.78
3766.00,99.79
3765.00,99.79
3764.00,99.79
3763.00,99.78
3762.00,99.78
3761.00,99.78
3760.00,99.78
3759.00,99.78
3758.00,99.78
3757.00,99.78
3756.00,99.78
3755.00,99.77
3754.00,99.77
3753.00,99.76
3752.00,99.76
3751.00,99.77
3750.00,99.77
3749.00,99.78
3748.00,99.78
3747.00,99.79
3746.00,99.79
3745.00,99.80
3744.00,99.80
3743.00,99.79
3742.00,99.79
3741.00,99.79
3740.00,99.79
3739.00,99.79
3738.00,99.80
3737.00,99.80
3736.00,99.80
3735.00,99.80
3734.00,99.81
3733.00,99.81
3732.00,99.82
3731.00,99.83
3730.00,99.83
3729.00,99.82
3728.00,99.82
3727.00,99.82
3726.00,99.82
3725.00,99.82
3724.00,99.82
3723.00,99.82
3722.00,99.82
3721.00,99.82
3720.00,99.82
3719.00,99.82
3718.00,99.81
3717.00,99.80
3716.00,99.80
3715.00,99.80
3714.00,99.81
3713.00,99.82
3712.00,99.82
3711.00,99.82
3710.00,99.82
3709.00,99.82
3708.00,99.82
3707.00,99.82
3706.00,99.82
3705.00,99.82
3704.00,99.82
3703.00,99.82
3702.00,99.82
3701.00,99.82
3700.00,99.82
3699.00,99.83
3698.00,99.83
3697.00,99.83
3696.00,99.83
3695.00,99.82
3694.00,99.81
3693.00,99.81
3692.00,99.80
3691.00,99.80
3690.00,99.80
3689.00,99.81
3688.00,99.81
3687.00,99.82
3686.00,99.82
3685.00,99.82
3684.00,99.82
3683.00,99.82
3682.00,99.81
3681.00,99.81
3680.00,99.80
3679.00,99.80
3678.00,99.80
3677.00,99.81
3676.00,99.81
3675.00,99.81
3674.00,99.81
3673.00,99.81
3672.00,99.82
3671.00,99.82
3670.00,99.83
3669.00,99.84
3668.00,99.84
3667.00,99.84
3666.00,99.84
3665.00,99.84
3664.00,99.84
3663.00,99.84
3662.00,99.83
3661.00,99.83
3660.00,99.83
3659.00,99.83
3658.00,99.83
3657.00,99.84
3656.00,99.83
3655.00,99.83
3654.00,99.82
3653.00,99.82
3652.00,99.82
3651.00,99.81
3650.00,99.81
3649.00,99.82
3648.00,99.82
3647.00,99.83
3646.00,99.83
3645.00,99.84
3644.00,99.84
3643.00,99.83
3642.00,99.83
3641.00,99.83
3640.00,99.83
3639.00,99.83
3638.00,99.83
3637.00,99.83
3636.00,99.84
3635.00,99.84
3634.00,99.83
3633.00,99.83
3632.00,99.82
3631.00,99.83
3630.00,99.84
3629.00,99.84
3628.00,99.84
3627.00,99.84
3626.00,99.84
3625.00,99.84
3624.00,99.83
3623.00,99.83
3622.00,99.83
3621.00,99.83
3620.00,99.83
3619.00,99.83
3618.00,99.83
3617.00,99.82
3616.00,99.82
3615.00,99.82
3614.00,99.82
3613.00,99.82
3612.00,99.82
3611.00,99.83
3610.00,99.83
3609.00,99.84
3608.00,99.84
3607.00,99.84
3606.00,99.84
3605.00,99.84
3604.00,99.84
3603.00,99.84
3602.00,99.84
3601.00,99.84
3600.00,99.84
3599.00,99.84
3598.00,99.83
3597.00,99.83
3596.00,99.83
3595.00,99.83
3594.00,99.83
3593.00,99.83
3592.00,99.83
3591.00,99.83
3590.00,99.83
3589.00,99.83
3588.00,99.83
3587.00,99.83
3586.00,99.83
3585.00,99.83
3584.00,99.83
3583.00,99.83
3582.00,99.83
3581.00,99.82
3580.00,99.82
3579.00,99.82
3578.00,99.81
3577.00,99.81
3576.00,99.81
3575.00,99.81
3574.00,99.82
3573.00,99.82
3572.00,99.81
3571.00,99.81
3570.00,99.81
3569.00,99.80
3568.00,99.80
3567.00,99.80
3566.00,99.81
3565.00,99.81
3564.00,99.81
3563.00,99.81
3562.00,99.81
3561.00,99.81
3560.00,99.82
3559.00,99.82
3558.00,99.82
3557.00,99.81
3556.00,99.81
3555.00,99.80
3554.00,99.79
3553.00,99.79
3552.00,99.79
3551.00,99.79
3550.00,99.79
3549.00,99.79
3548.00,99.79
3547.00,99.79
3546.00,99.79
3545.00,99.79
3544.00,99.79
3543.00,99.79
3542.00,99.79
3541.00,99.79
3540.00,99.79
3539.00,99.78
3538.00,99.78
3537.00,99.78
3536.00,99.78
3535.00,99.78
3534.00,99.78
3533.00,99.78
3532.00,99.78
3531.00,99.78
3530.00,99.78
3529.00,99.78
3528.00,99.78
3527.00,99.78
3526.00,99.78
3525.00,99.78
3524.00,99.78
3523.00,99.78
3522.00,99.78
3521.00,99.78
3520.00,99.78
3519.00,99.78
3518.00,99.78
3517.00,99.78
3516.00,99.77
3515.00,99.77
3514.00,99.77
3513.00,99.77
3512.00,99.76
3511.00,99.76
3510.00,99.77
3509.00,99.77
3508.00,99.78
3507.00,99.77
3506.00,99.77
3505.00,99.77
3504.00,99.77
3503.00,99.77
3502.00,99.77
3501.00,99.77
3500.00,99.77
3499.00,99.77
3498.00,99.77
3497.00,99.77
3496.00,99.77
3495.00,99.77
3494.00,99.77
3493.00,99.77
3492.00,99.77
3491.00,99.77
3490.00,99.77
3489.00,99.77
3488.00,99.76
3487.00,99.76
3486.00,99.76
3485.00,99.76
3484.00,99.76
3483.00,99.76
3482.00,99.76
3481.00,99.75
3480.00,99.75
3479.00,99.75
3478.00,99.75
3477.00,99.75
3476.00,99.75
3475.00,99.75
3474.00,99.75
3473.00,99.75
3472.00,99.75
3471.00,99.75
3470.00,99.75
3469.00,99.74
3468.00,99.74
3467.00,99.74
3466.00,99.74
3465.00,99.74
3464.00,99.74
3463.00,99.74
3462.00,99.74
3461.00,99.74
3460.00,99.74
3459.00,99.74
3458.00,99.74
3457.00,99.74
3456.00,99.74
3455.00,99.73
3454.00,99.73
3453.00,99.73
3452.00,99.73
3451.00,99.73
3450.00,99.72
3449.00,99.72
3448.00,99.72
3447.00,99.72
3446.00,99.72
3445.00,99.72
3444.00,99.72
3443.00,99.71
3442.00,99.71
3441.00,99.71
3440.00,99.71
3439.00,99.71
3438.00,99.71
3437.00,99.71
3436.00,99.71
3435.00,99.70
3434.00,99.70
3433.00,99.70
3432.00,99.70
3431.00,99.70
3430.00,99.69
3429.00,99.69
3428.00,99.68
3427.00,99.68
3426.00,99.68
3425.00,99.68
3424.00,99.68
3423.00,99.68
3422.00,99.67
3421.00,99.67
3420.00,99.66
3419.00,99.66
3418.00,99.66
3417.00,99.65
3416.00,99.65
3415.00,99.65
3414.00,99.65
3413.00,99.65
3412.00,99.65
3411.00,99.65
3410.00,99.65
3409.00,99.64
3408.00,99.64
3407.00,99.63
3406.00,99.62
3405.00,99.61
3404.00,99.61
3403.00,99.61
3402.00,99.61
3401.00,99.61
3400.00,99.61
3399.00,99.61
3398.00,99.61
3397.00,99.60
3396.00,99.60
3395.00,99.59
3394.00,99.59
3393.00,99.59
3392.00,99.59
3391.00,99.58
3390.00,99.58
3389.00,99.58
3388.00,99.58
3387.00,99.58
3386.00,99.59
3385.00,99.59
3384.00,99.60
3383.00,99.60
3382.00,99.60
3381.00,99.61
3380.00,99.61
3379.00,99.61
3378.00,99.61
3377.00,99.61
3376.00,99.61
3375.00,99.61
3374.00,99.61
3373.00,99.61
3372.00,99.61
3371.00,99.60
3370.00,99.60
3369.00,99.60
3368.00,99.61
3367.00,99.61
3366.00,99.61
3365.00,99.61
3364.00,99.61
3363.00,99.61
3362.00,99.61
3361.00,99.61
3360.00,99.61
3359.00,99.61
3358.00,99.61
3357.00,99.61
3356.00,99.61
3355.00,99.62
3354.00,99.62
3353.00,99.62
3352.00,99.62
3351.00,99.61
3350.00,99.61
3349.00,99.61
3348.00,99.61
3347.00,99.62
3346.00,99.62
3345.00,99.62
3344.00,99.62
3343.00,99.63
3342.00,99.63
3341.00,99.63
3340.00,99.63
3339.00,99.64
3338.00,99.64
3337.00,99.64
3336.00,99.64
3335.00,99.64
3334.00,99.64
3333.00,99.65
3332.00,99.65
3331.00,99.65
3330.00,99.66
3329.00,99.66
3328.00,99.67
3327.00,99.67
3326.00,99.67
3325.00,99.67
3324.00,99.67
3323.00,99.67
3322.00,99.67
3321.00,99.67
3320.00,99.67
3319.00,99.67
3318.00,99.67
3317.00,99.67
3316.00,99.67
3315.00,99.67
3314.00,99.67
3313.00,99.67
3312.00,99.67
3311.00,99.67
3310.00,99.67
3309.00,99.67
3308.00,99.67
3307.00,99.67
3306.00,99.67
3305.00,99.67
3304.00,99.67
3303.00,99.66
3302.00,99.66
3301.00,99.66
3300.00,99.66
3299.00,99.66
3298.00,99.66
3297.00,99.66
3296.00,99.67
3295.00,99.66
3294.00,99.66
3293.00,99.66
3292.00,99.66
3291.00,99.66
3290.00,99.66
3289.00,99.66
3288.00,99.66
3287.00,99.67
3286.00,99.67
3285.00,99.67
3284.00,99.67
3283.00,99.67
3282.00,99.67
3281.00,99.67
3280.00,99.67
3279.00,99.67
3278.00,99.66
3277.00,99.66
3276.00,99.66
3275.00,99.66
3274.00,99.67
3273.00,99.67
3272.00,99.67
3271.00,99.67
3270.00,99.67
3269.00,99.67
3268.00,99.67
3267.00,99.67
3266.00,99.67
3265.00,99.67
3264.00,99.67
3263.00,99.67
3262.00,99.67
3261.00,99.67
3260.00,99.67
3259.00,99.67
3258.00,99.68
3257.00,99.68
3256.00,99.68
3255.00,99.68
3254.00,99.68
3253.00,99.68
3252.00,99.69
3251.00,99.69
3250.00,99.69
3249.00,99.68
3248.00,99.68
3247.00,99.68
3246.00,99.68
3245.00,99.68
3244.00,99.68
3243.00,99.68
3242.00,99.67
3241.00,99.67
3240.00,99.66
3239.00,99.65
3238.00,99.65
3237.00,99.65
3236.00,99.64
3235.00,99.64
3234.00,99.64
3233.00,99.63
3232.00,99.63
3231.00,99.63
3230.00,99.63
3229.00,99.63
3228.00,99.62
3227.00,99.61
3226.00,99.60
3225.00,99.60
3224.00,99.59
3223.00,99.59
3222.00,99.58
3221.00,99.58
3220.00,99.57
3219.00,99.56
3218.00,99.56
3217.00,99.55
3216.00,99.55
3215.00,99.54
3214.00,99.53
3213.00,99.53
3212.00,99.52
3211.00,99.52
3210.00,99.51
3209.00,99.51
3208.00,99.51
3207.00,99.50
3206.00,99.49
3205.00,99.49
3204.00,99.48
3203.00,99.48
3202.00,99.48
3201.00,99.47
3200.00,99.47
3199.00,99.47
3198.00,99.47
3197.00,99.47
3196.00,99.47
3195.00,99.47
3194.00,99.47
3193.00,99.47
3192.00,99.47
3191.00,99.47
3190.00,99.48
3189.00,99.48
3188.00,99.48
3187.00,99.48
3186.00,99.48
3185.00,99.49
3184.00,99.49
3183.00,99.49
3182.00,99.50
3181.00,99.50
3180.00,99.50
3179.00,99.51
3178.00,99.51
3177.00,99.52
3176.00,99.52
3175.00,99.52
3174.00,99.53
3173.00,99.53
3172.00,99.54
3171.00,99.54
3170.00,99.55
3169.00,99.55
3168.00,99.55
3167.00,99.55
3166.00,99.55
3165.00,99.55
3164.00,99.55
3163.00,99.55
3162.00,99.55
3161.00,99.55
3160.00,99.55
3159.00,99.55
3158.00,99.55
3157.00,99.55
3156.00,99.55
3155.00,99.55
3154.00,99.55
3153.00,99.55
3152.00,99.55
3151.00,99.54
3150.00,99.54
3149.00,99.54
3148.00,99.54
3147.00,99.54
3146.00,99.54
3145.00,99.54
3144.00,99.54
3143.00,99.54
3142.00,99.54
3141.00,99.54
3140.00,99.54
3139.00,99.55
3138.00,99.55
3137.00,99.55
3136.00,99.56
3135.00,99.56
3134.00,99.56
3133.00,99.57
3132.00,99.57
3131.00,99.57
3130.00,99.57
3129.00,99.58
3128.00,99.58
3127.00,99.58
3126.00,99.59
3125.00,99.60
3124.00,99.60
3123.00,99.60
3122.00,99.60
3121.00,99.60
3120.00,99.60
3119.00,99.60
3118.00,99.61
3117.00,99.61
3116.00,99.61
3115.00,99.62
3114.00,99.62
3113.00,99.62
3112.00,99.62
3111.00,99.62
3110.00,99.62
3109.00,99.62
3108.00,99.62
3107.00,99.62
3106.00,99.62
3105.00,99.62
3104.00,99.62
3103.00,99.62
3102.00,99.63
3101.00,99.63
3100.00,99.63
3099.00,99.63
3098.00,99.62
3097.00,99.62
3096.00,99.62
3095.00,99.62
3094.00,99.62
3093.00,99.62
3092.00,99.62
3091.00,99.62
3090.00,99.62
3089.00,99.62
3088.00,99.62
3087.00,99.61
3086.00,99.61
3085.00,99.62
3084.00,99.62
3083.00,99.62
3082.00,99.62
3081.00,99.62
3080.00,99.62
3079.00,99.62
3078.00,99.62
3077.00,99.62
3076.00,99.62
3075.00,99.62
3074.00,99.62
3073.00,99.62
3072.00,99.62
3071.00,99.61
3070.00,99.61
3069.00,99.61
3068.00,99.60
3067.00,99.60
3066.00,99.60
3065.00,99.59
3064.00,99.59
3063.00,99.59
3062.00,99.58
3061.00,99.58
3060.00,99.58
3059.00,99.57
3058.00,99.56
3057.00,99.56
3056.00,99.56
3055.00,99.55
3054.00,99.55
3053.00,99.55
3052.00,99.54
3051.00,99.54
3050.00,99.54
3049.00,99.53
3048.00,99.53
3047.00,99.53
3046.00,99.53
3045.00,99.53
3044.00,99.52
3043.00,99.52
3042.00,99.52
3041.00,99.52
3040.00,99.51
3039.00,99.51
3038.00,99.51
3037.00,99.51
3036.00,99.51
3035.00,99.50
3034.00,99.50
3033.00,99.49
3032.00,99.48
3031.00,99.47
3030.00,99.47
3029.00,99.46
3028.00,99.45
3027.00,99.44
3026.00,99.43
3025.00,99.42
3024.00,99.41
3023.00,99.39
3022.00,99.38
3021.00,99.36
3020.00,99.34
3019.00,99.32
3018.00,99.31
3017.00,99.29
3016.00,99.27
3015.00,99.25
3014.00,99.24
3013.00,99.21
3012.00,99.19
3011.00,99.17
3010.00,99.15
3009.00,99.12
3008.00,99.10
3007.00,99.07
3006.00,99.04
3005.00,99.01
3004.00,98.98
3003.00,98.95
3002.00,98.92
3001.00,98.88
3000.00,98.85
2999.00,98.80
2998.00,98.75
2997.00,98.69
2996.00,98.63
2995.00,98.57
2994.00,98.50
2993.00,98.42
2992.00,98.34
2991.00,98.24
2990.00,98.14
2989.00,98.02
2988.00,97.90
2987.00,97.76
2986.00,97.60
2985.00,97.43
2984.00,97.23
2983.00,97.01
2982.00,96.76
2981.00,96.48
2980.00,96.16
2979.00,95.80
2978.00,95.38
2977.00,94.92
2976.00,94.38
2975.00,93.76
2974.00,93.06
2973.00,92.25
2972.00,91.34
2971.00,90.31
2970.00,89.17
2969.00,87.92
2968.00,86.57
2967.00,85.12
2966.00,83.61
2965.00,82.07
2964.00,80.60
2963.00,79.31
2962.00,78.31
2961.00,77.68
2960.00,77.38
2959.00,77.29
2958.00,77.18
2957.00,76.83
2956.00,76.07
2955.00,74.86
2954.00,73.27
2953.00,71.51
2952.00,69.90
2951.00,68.75
2950.00,68.33
2949.00,68.75
2948.00,70.00
2947.00,71.89
2946.00,74.17
2945.00,76.55
2944.00,78.80
2943.00,80.76
2942.00,82.33
2941.00,83.49
2940.00,84.24
2939.00,84.63
2938.00,84.69
2937.00,84.44
2936.00,83.91
2935.00,83.12
2934.00,82.08
2933.00,80.82
2932.00,79.36
2931.00,77.74
2930.00,76.01
2929.00,74.26
2928.00,72.53
2927.00,70.90
2926.00,69.37
2925.00,67.95
2924.00,66.59
2923.00,65.23
2922.00,63.88
2921.00,62.56
2920.00,61.40
2919.00,60.57
2918.00,60.25
2917.00,60.55
2916.00,61.43
2915.00,62.76
2914.00,64.31
2913.00,65.89
2912.00,67.33
2911.00,68.58
2910.00,69.64
2909.00,70.58
2908.00,71.48
2907.00,72.41
2906.00,73.39
2905.00,74.43
2904.00,75.51
2903.00,76.60
2902.00,77.67
2901.00,78.71
2900.00,79.70
2899.00,80.63
2898.00,81.48
2897.00,82.23
2896.00,82.86
2895.00,83.37
2894.00,83.74
2893.00,83.99
2892.00,84.12
2891.00,84.15
2890.00,84.10
2889.00,83.99
2888.00,83.85
2887.00,83.67
2886.00,83.46
2885.00,83.21
2884.00,82.92
2883.00,82.58
2882.00,82.20
2881.00,81.80
2880.00,81.44
2879.00,81.18
2878.00,81.06
2877.00,81.08
2876.00,81.22
2875.00,81.38
2874.00,81.48
2873.00,81.46
2872.00,81.27
2871.00,80.94
2870.00,80.50
2869.00,80.04
2868.00,79.68
2867.00,79.58
2866.00,79.88
2865.00,80.68
2864.00,81.94
2863.00,83.54
2862.00,85.28
2861.00,86.97
2860.00,88.48
2859.00,89.72
2858.00,90.68
2857.00,91.37
2856.00,91.83
2855.00,92.09
2854.00,92.17
2853.00,92.11
2852.00,91.89
2851.00,91.55
2850.00,91.07
2849.00,90.45
2848.00,89.69
2847.00,88.76
2846.00,87.67
2845.00,86.44
2844.00,85.10
2843.00,83.73
2842.00,82.43
2841.00,81.34
2840.00,80.58
2839.00,80.26
2838.00,80.46
2837.00,81.19
2836.00,82.37
2835.00,83.87
2834.00,85.53
2833.00,87.20
2832.00,88.74
2831.00,90.09
2830.00,91.23
2829.00,92.18
2828.00,92.95
2827.00,93.58
2826.00,94.10
2825.00,94.54
2824.00,94.90
2823.00,95.20
2822.00,95.47
2821.00,95.69
2820.00,95.89
2819.00,96.06
2818.00,96.20
2817.00,96.33
2816.00,96.44
2815.00,96.55
2814.00,96.64
2813.00,96.73
2812.00,96.82
2811.00,96.91
2810.00,97.01
2809.00,97.10
2808.00,97.20
2807.00,97.31
2806.00,97.43
2805.00,97.54
2804.00,97.66
2803.00,97.76
2802.00,97.85
2801.00,97.92
2800.00,97.99
2799.00,98.04
2798.00,98.09
2797.00,98.13
2796.00,98.16
2795.00,98.20
2794.00,98.24
2793.00,98.28
2792.00,98.33
2791.00,98.38
2790.00,98.43
2789.00,98.48
2788.00,98.54
2787.00,98.59
2786.00,98.63
2785.00,98.68
2784.00,98.72
2783.00,98.76
2782.00,98.79
2781.00,98.82
2780.00,98.85
2779.00,98.88
2778.00,98.90
2777.00,98.93
2776.00,98.95
2775.00,98.97
2774.00,98.98
2773.00,98.99
2772.00,99.00
2771.00,99.01
2770.00,99.02
2769.00,99.03
2768.00,99.04
2767.00,99.04
2766.00,99.05
2765.00,99.06
2764.00,99.07
2763.00,99.08
2762.00,99.08
2761.00,99.09
2760.00,99.10
2759.00,99.11
2758.00,99.12
2757.00,99.13
2756.00,99.14
2755.00,99.14
2754.00,99.14
2753.00,99.15
2752.00,99.15
2751.00,99.15
2750.00,99.15
2749.00,99.15
2748.00,99.14
2747.00,99.13
2746.00,99.12
2745.00,99.11
2744.00,99.09
2743.00,99.07
2742.00,99.05
2741.00,99.03
2740.00,99.00
2739.00,98.97
2738.00,98.95
2737.00,98.92
2736.00,98.89
2735.00,98.86
2734.00,98.84
2733.00,98.80
2732.00,98.77
2731.00,98.73
2730.00,98.69
2729.00,98.64
2728.00,98.58
2727.00,98.53
2726.00,98.47
2725.00,98.43
2724.00,98.39
2723.00,98.38
2722.00,98.39
2721.00,98.42
2720.00,98.47
2719.00,98.53
2718.00,98.59
2717.00,98.66
2716.00,98.72
2715.00,98.78
2714.00,98.83
2713.00,98.88
2712.00,98.92
2711.00,98.95
2710.00,98.99
2709.00,99.02
2708.00,99.04
2707.00,99.07
2706.00,99.09
2705.00,99.11
2704.00,99.13
2703.00,99.14
2702.00,99.16
2701.00,99.17
2700.00,99.18
2699.00,99.20
2698.00,99.20
2697.00,99.21
2696.00,99.21
2695.00,99.22
2694.00,99.22
2693.00,99.22
2692.00,99.22
2691.00,99.22
2690.00,99.22
2689.00,99.22
2688.00,99.22
2687.00,99.21
2686.00,99.21
2685.00,99.21
2684.00,99.21
2683.00,99.20
2682.00,99.20
2681.00,99.19
2680.00,99.19
2679.00,99.19
2678.00,99.18
2677.00,99.18
2676.00,99.18
2675.00,99.19
2674.00,99.19
2673.00,99.20
2672.00,99.20
2671.00,99.21
2670.00,99.21
2669.00,99.21
2668.00,99.20
2667.00,99.20
2666.00,99.19
2665.00,99.18
2664.00,99.17
2663.00,99.16
2662.00,99.15
2661.00,99.14
2660.00,99.13
2659.00,99.13
2658.00,99.14
2657.00,99.14
2656.00,99.15
2655.00,99.16
2654.00,99.17
2653.00,99.18
2652.00,99.19
2651.00,99.20
2650.00,99.21
2649.00,99.21
2648.00,99.22
2647.00,99.22
2646.00,99.23
2645.00,99.23
2644.00,99.24
2643.00,99.24
2642.00,99.25
2641.00,99.26
2640.00,99.27
2639.00,99.28
2638.00,99.28
2637.00,99.28
2636.00,99.28
2635.00,99.28
2634.00,99.28
2633.00,99.27
2632.00,99.26
2631.00,99.26
2630.00,99.25
2629.00,99.24
2628.00,99.23
2627.00,99.23
2626.00,99.22
2625.00,99.21
2624.00,99.21
2623.00,99.20
2622.00,99.19
2621.00,99.19
2620.00,99.18
2619.00,99.18
2618.00,99.18
2617.00,99.17
2616.00,99.17
2615.00,99.17
2614.00,99.17
2613.00,99.18
2612.00,99.19
2611.00,99.20
2610.00,99.21
2609.00,99.23
2608.00,99.25
2607.00,99.26
2606.00,99.28
2605.00,99.29
2604.00,99.30
2603.00,99.31
2602.00,99.32
2601.00,99.33
2600.00,99.33
2599.00,99.34
2598.00,99.34
2597.00,99.33
2596.00,99.33
2595.00,99.32
2594.00,99.31
2593.00,99.29
2592.00,99.28
2591.00,99.26
2590.00,99.24
2589.00,99.22
2588.00,99.20
2587.00,99.18
2586.00,99.15
2585.00,99.12
2584.00,99.10
2583.00,99.09
2582.00,99.09
2581.00,99.09
2580.00,99.11
2579.00,99.13
2578.00,99.16
2577.00,99.19
2576.00,99.22
2575.00,99.24
2574.00,99.27
2573.00,99.29
2572.00,99.31
2571.00,99.33
2570.00,99.34
2569.00,99.36
2568.00,99.37
2567.00,99.39
2566.00,99.40
2565.00,99.41
2564.00,99.41
2563.00,99.41
2562.00,99.42
2561.00,99.42
2560.00,99.43
2559.00,99.43
2558.00,99.43
2557.00,99.43
2556.00,99.44
2555.00,99.44
2554.00,99.45
2553.00,99.45
2552.00,99.46
2551.00,99.47
2550.00,99.48
2549.00,99.48
2548.00,99.48
2547.00,99.49
2546.00,99.50
2545.00,99.50
2544.00,99.51
2543.00,99.52
2542.00,99.52
2541.00,99.53
2540.00,99.54
2539.00,99.54
2538.00,99.55
2537.00,99.55
2536.00,99.56
2535.00,99.56
2534.00,99.56
2533.00,99.56
2532.00,99.56
2531.00,99.56
2530.00,99.57
2529.00,99.57
2528.00,99.57
2527.00,99.58
2526.00,99.58
2525.00,99.58
2524.00,99.58
2523.00,99.59
2522.00,99.60
2521.00,99.61
2520.00,99.61
2519.00,99.62
2518.00,99.63
2517.00,99.63
2516.00,99.64
2515.00,99.64
2514.00,99.64
2513.00,99.64
2512.00,99.64
2511.00,99.65
2510.00,99.65
2509.00,99.65
2508.00,99.65
2507.00,99.65
2506.00,99.65
2505.00,99.66
2504.00,99.66
2503.00,99.66
2502.00,99.65
2501.00,99.65
2500.00,99.65
2499.00,99.65
2498.00,99.65
2497.00,99.65
2496.00,99.64
2495.00,99.64
2494.00,99.64
2493.00,99.64
2492.00,99.64
2491.00,99.64
2490.00,99.64
2489.00,99.64
2488.00,99.64
2487.00,99.65
2486.00,99.65
2485.00,99.65
2484.00,99.65
2483.00,99.65
2482.00,99.65
2481.00,99.65
2480.00,99.65
2479.00,99.66
2478.00,99.66
2477.00,99.67
2476.00,99.67
2475.00,99.67
2474.00,99.68
2473.00,99.68
2472.00,99.68
2471.00,99.68
2470.00,99.68
2469.00,99.67
2468.00,99.67
2467.00,99.67
2466.00,99.67
2465.00,99.67
2464.00,99.67
2463.00,99.68
2462.00,99.67
2461.00,99.66
2460.00,99.66
2459.00,99.65
2458.00,99.65
2457.00,99.65
2456.00,99.64
2455.00,99.64
2454.00,99.64
2453.00,99.63
2452.00,99.63
2451.00,99.62
2450.00,99.62
2449.00,99.63
2448.00,99.63
2447.00,99.63
2446.00,99.63
2445.00,99.63
2444.00,99.63
2443.00,99.63
2442.00,99.63
2441.00,99.64
2440.00,99.64
2439.00,99.64
2438.00,99.64
2437.00,99.63
2436.00,99.63
2435.00,99.63
2434.00,99.62
2433.00,99.61
2432.00,99.61
2431.00,99.60
2430.00,99.60
2429.00,99.60
2428.00,99.60
2427.00,99.60
2426.00,99.60
2425.00,99.61
2424.00,99.61
2423.00,99.62
2422.00,99.63
2421.00,99.63
2420.00,99.64
2419.00,99.65
2418.00,99.65
2417.00,99.65
2416.00,99.65
2415.00,99.65
2414.00,99.65
2413.00,99.65
2412.00,99.65
2411.00,99.65
2410.00,99.65
2409.00,99.65
2408.00,99.66
2407.00,99.66
2406.00,99.67
2405.00,99.67
2404.00,99.67
2403.00,99.67
2402.00,99.67
2401.00,99.67
2400.00,99.68
2399.00,99.68
2398.00,99.68
2397.00,99.68
2396.00,99.69
2395.00,99.69
2394.00,99.70
2393.00,99.70
2392.00,99.70
2391.00,99.70
2390.00,99.70
2389.00,99.70
2388.00,99.71
2387.00,99.71
2386.00,99.72
2385.00,99.73
2384.00,99.74
2383.00,99.75
2382.00,99.77
2381.00,99.79
2380.00,99.80
2379.00,99.82
2378.00,99.83
2377.00,99.84
2376.00,99.84
2375.00,99.83
2374.00,99.82
2373.00,99.81
2372.00,99.81
2371.00,99.81
2370.00,99.82
2369.00,99.83
2368.00,99.84
2367.00,99.84
2366.00,99.85
2365.00,99.85
2364.00,99.84
2363.00,99.83
2362.00,99.82
2361.00,99.82
2360.00,99.82
2359.00,99.83
2358.00,99.84
2357.00,99.83
2356.00,99.82
2355.00,99.82
2354.00,99.82
2353.00,99.82
2352.00,99.83
2351.00,99.83
2350.00,99.82
2349.00,99.82
2348.00,99.83
2347.00,99.84
2346.00,99.83
2345.00,99.82
2344.00,99.81
2343.00,99.81
2342.00,99.81
2341.00,99.81
2340.00,99.80
2339.00,99.79
2338.00,99.77
2337.00,99.76
2336.00,99.76
2335.00,99.76
2334.00,99.76
2333.00,99.76
2332.00,99.77
2331.00,99.77
2330.00,99.77
2329.00,99.77
2328.00,99.75
2327.00,99.71
2326.00,99.65
2325.00,99.59
2324.00,99.56
2323.00,99.56
2322.00,99.58
2321.00,99.60
2320.00,99.62
2319.00,99.63
2318.00,99.64
2317.00,99.65
2316.00,99.66
2315.00,99.68
2314.00,99.70
2313.00,99.72
2312.00,99.73
2311.00,99.73
2310.00,99.73
2309.00,99.73
2308.00,99.72
2307.00,99.70
2306.00,99.69
2305.00,99.67
2304.00,99.66
2303.00,99.65
2302.00,99.65
2301.00,99.64
2300.00,99.64
2299.00,99.63
2298.00,99.62
2297.00,99.62
2296.00,99.61
2295.00,99.60
2294.00,99.59
2293.00,99.58
2292.00,99.56
2291.00,99.55
2290.00,99.53
2289.00,99.51
2288.00,99.49
2287.00,99.48
2286.00,99.47
2285.00,99.47
2284.00,99.48
2283.00,99.50
2282.00,99.51
2281.00,99.52
2280.00,99.52
2279.00,99.52
2278.00,99.52
2277.00,99.52
2276.00,99.52
2275.00,99.53
2274.00,99.54
2273.00,99.54
2272.00,99.54
2271.00,99.53
2270.00,99.53
2269.00,99.52
2268.00,99.52
2267.00,99.53
2266.00,99.54
2265.00,99.55
2264.00,99.55
2263.00,99.55
2262.00,99.53
2261.00,99.52
2260.00,99.51
2259.00,99.50
2258.00,99.49
2257.00,99.48
2256.00,99.49
2255.00,99.51
2254.00,99.53
2253.00,99.54
2252.00,99.54
2251.00,99.54
2250.00,99.55
2249.00,99.55
2248.00,99.56
2247.00,99.56
2246.00,99.56
2245.00,99.56
2244.00,99.56
2243.00,99.56
2242.00,99.56
2241.00,99.56
2240.00,99.55
2239.00,99.55
2238.00,99.54
2237.00,99.54
2236.00,99.53
2235.00,99.53
2234.00,99.53
2233.00,99.53
2232.00,99.54
2231.00,99.54
2230.00,99.53
2229.00,99.53
2228.00,99.53
2227.00,99.52
2226.00,99.52
2225.00,99.52
2224.00,99.52
2223.00,99.53
2222.00,99.53
2221.00,99.53
2220.00,99.54
2219.00,99.54
2218.00,99.54
2217.00,99.54
2216.00,99.54
2215.00,99.54
2214.00,99.55
2213.00,99.55
2212.00,99.55
2211.00,99.54
2210.00,99.54
2209.00,99.53
2208.00,99.53
2207.00,99.53
2206.00,99.53
2205.00,99.51
2204.00,99.50
2203.00,99.49
2202.00,99.50
2201.00,99.50
2200.00,99.49
2199.00,99.48
2198.00,99.47
2197.00,99.47
2196.00,99.47
2195.00,99.46
2194.00,99.45
2193.00,99.44
2192.00,99.43
2191.00,99.43
2190.00,99.42
2189.00,99.42
2188.00,99.42
2187.00,99.42
2186.00,99.42
2185.00,99.41
2184.00,99.42
2183.00,99.44
2182.00,99.47
2181.00,99.50
2180.00,99.51
2179.00,99.50
2178.00,99.49
2177.00,99.48
2176.00,99.48
2175.00,99.50
2174.00,99.50
2173.00,99.49
2172.00,99.46
2171.00,99.43
2170.00,99.39
2169.00,99.35
2168.00,99.32
2167.00,99.30
2166.00,99.28
2165.00,99.26
2164.00,99.22
2163.00,99.18
2162.00,99.15
2161.00,99.19
2160.00,99.32
2159.00,99.53
2158.00,99.74
2157.00,99.87
2156.00,99.92
2155.00,99.92
2154.00,99.90
2153.00,99.87
2152.00,99.85
2151.00,99.83
2150.00,99.81
2149.00,99.80
2148.00,99.79
2147.00,99.80
2146.00,99.80
2145.00,99.81
2144.00,99.82
2143.00,99.82
2142.00,99.81
2141.00,99.81
2140.00,99.80
2139.00,99.80
2138.00,99.80
2137.00,99.80
2136.00,99.82
2135.00,99.85
2134.00,99.88
2133.00,99.90
2132.00,99.90
2131.00,99.89
2130.00,99.86
2129.00,99.84
2128.00,99.83
2127.00,99.81
2126.00,99.80
2125.00,99.79
2124.00,99.78
2123.00,99.77
2122.00,99.76
2121.00,99.75
2120.00,99.74
2119.00,99.73
2118.00,99.72
2117.00,99.71
2116.00,99.69
2115.00,99.68
2114.00,99.67
2113.00,99.66
2112.00,99.65
2111.00,99.64
2110.00,99.64
2109.00,99.64
2108.00,99.64
2107.00,99.65
2106.00,99.65
2105.00,99.66
2104.00,99.65
2103.00,99.65
2102.00,99.64
2101.00,99.63
2100.00,99.64
2099.00,99.65
2098.00,99.66
2097.00,99.67
2096.00,99.70
2095.00,99.72
2094.00,99.73
2093.00,99.73
2092.00,99.72
2091.00,99.70
2090.00,99.69
2089.00,99.67
2088.00,99.66
2087.00,99.66
2086.00,99.66
2085.00,99.66
2084.00,99.66
2083.00,99.66
2082.00,99.65
2081.00,99.63
2080.00,99.62
2079.00,99.61
2078.00,99.61
2077.00,99.60
2076.00,99.61
2075.00,99.61
2074.00,99.62
2073.00,99.62
2072.00,99.62
2071.00,99.62
2070.00,99.62
2069.00,99.62
2068.00,99.62
2067.00,99.62
2066.00,99.62
2065.00,99.62
2064.00,99.62
2063.00,99.63
2062.00,99.63
2061.00,99.62
2060.00,99.61
2059.00,99.60
2058.00,99.58
2057.00,99.58
2056.00,99.58
2055.00,99.60
2054.00,99.60
2053.00,99.57
2052.00,99.51
2051.00,99.44
2050.00,99.41
2049.00,99.43
2048.00,99.47
2047.00,99.50
2046.00,99.51
2045.00,99.51
2044.00,99.50
2043.00,99.49
2042.00,99.49
2041.00,99.49
2040.00,99.48
2039.00,99.47
2038.00,99.46
2037.00,99.45
2036.00,99.45
2035.00,99.47
2034.00,99.48
2033.00,99.50
2032.00,99.51
2031.00,99.53
2030.00,99.55
2029.00,99.56
2028.00,99.57
2027.00,99.58
2026.00,99.59
2025.00,99.60
2024.00,99.61
2023.00,99.62
2022.00,99.62
2021.00,99.62
2020.00,99.63
2019.00,99.63
2018.00,99.62
2017.00,99.61
2016.00,99.59
2015.00,99.58
2014.00,99.58
2013.00,99.57
2012.00,99.57
2011.00,99.58
2010.00,99.59
2009.00,99.60
2008.00,99.62
2007.00,99.66
2006.00,99.71
2005.00,99.73
2004.00,99.74
2003.00,99.73
2002.00,99.71
2001.00,99.69
2000.00,99.67
1999.00,99.66
1998.00,99.65
1997.00,99.65
1996.00,99.64
1995.00,99.62
1994.00,99.61
1993.00,99.60
1992.00,99.59
1991.00,99.59
1990.00,99.58
1989.00,99.56
1988.00,99.53
1987.00,99.50
1986.00,99.48
1985.00,99.46
1984.00,99.44
1983.00,99.42
1982.00,99.38
1981.00,99.34
1980.00,99.32
1979.00,99.34
1978.00,99.42
1977.00,99.51
1976.00,99.60
1975.00,99.66
1974.00,99.68
1973.00,99.69
1972.00,99.69
1971.00,99.69
1970.00,99.70
1969.00,99.69
1968.00,99.69
1967.00,99.69
1966.00,99.69
1965.00,99.70
1964.00,99.71
1963.00,99.73
1962.00,99.75
1961.00,99.78
1960.00,99.80
1959.00,99.83
1958.00,99.84
1957.00,99.83
1956.00,99.82
1955.00,99.79
1954.00,99.78
1953.00,99.77
1952.00,99.77
1951.00,99.77
1950.00,99.77
1949.00,99.78
1948.00,99.79
1947.00,99.80
1946.00,99.80
1945.00,99.79
1944.00,99.78
1943.00,99.78
1942.00,99.77
1941.00,99.76
1940.00,99.76
1939.00,99.75
1938.00,99.76
1937.00,99.77
1936.00,99.78
1935.00,99.78
1934.00,99.78
1933.00,99.77
1932.00,99.76
1931.00,99.76
1930.00,99.76
1929.00,99.76
1928.00,99.76
1927.00,99.76
1926.00,99.76
1925.00,99.76
1924.00,99.76
1923.00,99.75
1922.00,99.75
1921.00,99.75
1920.00,99.74
1919.00,99.75
1918.00,99.75
1917.00,99.75
1916.00,99.76
1915.00,99.75
1914.00,99.75
1913.00,99.74
1912.00,99.73
1911.00,99.73
1910.00,99.74
1909.00,99.75
1908.00,99.75
1907.00,99.75
1906.00,99.74
1905.00,99.73
1904.00,99.73
1903.00,99.73
1902.00,99.73
1901.00,99.73
1900.00,99.73
1899.00,99.73
1898.00,99.72
1897.00,99.72
1896.00,99.72
1895.00,99.72
1894.00,99.72
1893.00,99.72
1892.00,99.72
1891.00,99.72
1890.00,99.72
1889.00,99.72
1888.00,99.72
1887.00,99.73
1886.00,99.73
1885.00,99.74
1884.00,99.75
1883.00,99.75
1882.00,99.75
1881.00,99.76
1880.00,99.76
1879.00,99.77
1878.00,99.77
1877.00,99.77
1876.00,99.77
1875.00,99.76
1874.00,99.76
1873.00,99.76
1872.00,99.76
1871.00,99.76
1870.00,99.75
1869.00,99.75
1868.00,99.75
1867.00,99.75
1866.00,99.75
1865.00,99.75
1864.00,99.75
1863.00,99.75
1862.00,99.75
1861.00,99.75
1860.00,99.75
1859.00,99.75
1858.00,99.75
1857.00,99.75
1856.00,99.75
1855.00,99.75
1854.00,99.75
1853.00,99.76
1852.00,99.76
1851.00,99.75
1850.00,99.75
1849.00,99.75
1848.00,99.74
1847.00,99.74
1846.00,99.74
1845.00,99.74
1844.00,99.74
1843.00,99.74
1842.00,99.74
1841.00,99.74
1840.00,99.74
1839.00,99.73
1838.00,99.73
1837.00,99.72
1836.00,99.72
1835.00,99.72
1834.00,99.72
1833.00,99.71
1832.00,99.71
1831.00,99.71
1830.00,99.71
1829.00,99.72
1828.00,99.72
1827.00,99.73
1826.00,99.73
1825.00,99.73
1824.00,99.73
1823.00,99.73
1822.00,99.73
1821.00,99.74
1820.00,99.75
1819.00,99.77
1818.00,99.79
1817.00,99.80
1816.00,99.81
1815.00,99.80
1814.00,99.79
1813.00,99.78
1812.00,99.77
1811.00,99.76
1810.00,99.76
1809.00,99.75
1808.00,99.75
1807.00,99.75
1806.00,99.74
1805.00,99.74
1804.00,99.74
1803.00,99.74
1802.00,99.74
1801.00,99.74
1800.00,99.73
1799.00,99.72
1798.00,99.72
1797.00,99.72
1796.00,99.72
1795.00,99.72
1794.00,99.72
1793.00,99.71
1792.00,99.71
1791.00,99.71
1790.00,99.71
1789.00,99.71
1788.00,99.70
1787.00,99.70
1786.00,99.71
1785.00,99.71
1784.00,99.70
1783.00,99.70
1782.00,99.70
1781.00,99.70
1780.00,99.70
1779.00,99.70
1778.00,99.71
1777.00,99.71
1776.00,99.71
1775.00,99.71
1774.00,99.71
1773.00,99.70
1772.00,99.69
1771.00,99.69
1770.00,99.68
1769.00,99.68
1768.00,99.68
1767.00,99.68
1766.00,99.68
1765.00,99.67
1764.00,99.66
1763.00,99.66
1762.00,99.65
1761.00,99.65
1760.00,99.65
1759.00,99.65
1758.00,99.64
1757.00,99.64
1756.00,99.63
1755.00,99.62
1754.00,99.61
1753.00,99.60
1752.00,99.60
1751.00,99.59
1750.00,99.59
1749.00,99.59
1748.00,99.59
1747.00,99.58
1746.00,99.58
1745.00,99.57
1744.00,99.57
1743.00,99.57
1742.00,99.57
1741.00,99.57
1740.00,99.56
1739.00,99.56
1738.00,99.56
1737.00,99.56
1736.00,99.56
1735.00,99.57
1734.00,99.57
1733.00,99.57
1732.00,99.57
1731.00,99.57
1730.00,99.57
1729.00,99.57
1728.00,99.57
1727.00,99.57
1726.00,99.57
1725.00,99.56
1724.00,99.55
1723.00,99.55
1722.00,99.55
1721.00,99.55
1720.00,99.54
1719.00,99.54
1718.00,99.53
1717.00,99.52
1716.00,99.52
1715.00,99.52
1714.00,99.51
1713.00,99.51
1712.00,99.50
1711.00,99.50
1710.00,99.49
1709.00,99.48
1708.00,99.48
1707.00,99.47
1706.00,99.47
1705.00,99.47
1704.00,99.47
1703.00,99.47
1702.00,99.47
1701.00,99.46
1700.00,99.45
1699.00,99.45
1698.00,99.45
1697.00,99.44
1696.00,99.44
1695.00,99.44
1694.00,99.44
1693.00,99.44
1692.00,99.43
1691.00,99.43
1690.00,99.43
1689.00,99.42
1688.00,99.42
1687.00,99.42
1686.00,99.42
1685.00,99.42
1684.00,99.41
1683.00,99.41
1682.00,99.40
1681.00,99.40
1680.00,99.40
1679.00,99.39
1678.00,99.39
1677.00,99.38
1676.00,99.38
1675.00,99.37
1674.00,99.37
1673.00,99.37
1672.00,99.37
1671.00,99.37
1670.00,99.37
1669.00,99.36
1668.00,99.35
1667.00,99.34
1666.00,99.34
1665.00,99.33
1664.00,99.32
1663.00,99.31
1662.00,99.31
1661.00,99.30
1660.00,99.29
1659.00,99.29
1658.00,99.28
1657.00,99.27
1656.00,99.26
1655.00,99.25
1654.00,99.22
1653.00,99.18
1652.00,99.14
1651.00,99.12
1650.00,99.09
1649.00,99.06
1648.00,99.03
1647.00,99.00
1646.00,98.99
1645.00,99.01
1644.00,99.03
1643.00,99.07
1642.00,99.10
1641.00,99.13
1640.00,99.15
1639.00,99.17
1638.00,99.19
1637.00,99.19
1636.00,99.20
1635.00,99.20
1634.00,99.20
1633.00,99.21
1632.00,99.21
1631.00,99.22
1630.00,99.22
1629.00,99.23
1628.00,99.24
1627.00,99.25
1626.00,99.27
1625.00,99.29
1624.00,99.31
1623.00,99.32
1622.00,99.34
1621.00,99.34
1620.00,99.34
1619.00,99.35
1618.00,99.35
1617.00,99.35
1616.00,99.36
1615.00,99.37
1614.00,99.37
1613.00,99.38
1612.00,99.38
1611.00,99.38
1610.00,99.39
1609.00,99.39
1608.00,99.39
1607.00,99.39
1606.00,99.39
1605.00,99.39
1604.00,99.39
1603.00,99.40
1602.00,99.40
1601.00,99.40
1600.00,99.40
1599.00,99.41
1598.00,99.41
1597.00,99.41
1596.00,99.41
1595.00,99.41
1594.00,99.41
1593.00,99.41
1592.00,99.41
1591.00,99.42
1590.00,99.42
1589.00,99.42
1588.00,99.41
1587.00,99.41
1586.00,99.41
1585.00,99.40
1584.00,99.40
1583.00,99.39
1582.00,99.39
1581.00,99.39
1580.00,99.38
1579.00,99.38
1578.00,99.38
1577.00,99.38
1576.00,99.37
1575.00,99.37
1574.00,99.37
1573.00,99.37
1572.00,99.36
1571.00,99.36
1570.00,99.37
1569.00,99.37
1568.00,99.37
1567.00,99.37
1566.00,99.37
1565.00,99.37
1564.00,99.36
1563.00,99.36
1562.00,99.36
1561.00,99.35
1560.00,99.35
1559.00,99.36
1558.00,99.36
1557.00,99.35
1556.00,99.34
1555.00,99.34
1554.00,99.34
1553.00,99.33
1552.00,99.33
1551.00,99.33
1550.00,99.32
1549.00,99.32
1548.00,99.31
1547.00,99.31
1546.00,99.31
1545.00,99.30
1544.00,99.29
1543.00,99.29
1542.00,99.29
1541.00,99.29
1540.00,99.29
1539.00,99.31
1538.00,99.33
1537.00,99.33
1536.00,99.33
1535.00,99.34
1534.00,99.35
1533.00,99.35
1532.00,99.35
1531.00,99.36
1530.00,99.36
1529.00,99.35
1528.00,99.35
1527.00,99.35
1526.00,99.35
1525.00,99.34
1524.00,99.33
1523.00,99.32
1522.00,99.32
1521.00,99.32
1520.00,99.31
1519.00,99.30
1518.00,99.30
1517.00,99.28
1516.00,99.26
1515.00,99.25
1514.00,99.24
1513.00,99.22
1512.00,99.20
1511.00,99.20
1510.00,99.19
1509.00,99.18
1508.00,99.16
1507.00,99.14
1506.00,99.13
1505.00,99.11
1504.00,99.08
1503.00,99.07
1502.00,99.06
1501.00,99.03
1500.00,98.99
1499.00,98.97
1498.00,98.95
1497.00,98.91
1496.00,98.86
1495.00,98.83
1494.00,98.81
1493.00,98.77
1492.00,98.72
1491.00,98.67
1490.00,98.62
1489.00,98.54
1488.00,98.45
1487.00,98.37
1486.00,98.29
1485.00,98.19
1484.00,98.07
1483.00,97.96
1482.00,97.81
1481.00,97.62
1480.00,97.42
1479.00,97.22
1478.00,96.97
1477.00,96.63
1476.00,96.22
1475.00,95.76
1474.00,95.12
1473.00,94.17
1472.00,93.04
1471.00,91.96
1470.00,90.92
1469.00,89.82
1468.00,88.64
1467.00,87.32
1466.00,85.78
1465.00,84.14
1464.00,82.72
1463.00,81.75
1462.00,81.10
1461.00,80.62
1460.00,80.25
1459.00,79.98
1458.00,79.74
1457.00,79.59
1456.00,79.57
1455.00,79.64
1454.00,79.71
1453.00,79.78
1452.00,79.93
1451.00,80.23
1450.00,80.80
1449.00,81.81
1448.00,83.31
1447.00,85.06
1446.00,86.76
1445.00,88.28
1444.00,89.60
1443.00,90.67
1442.00,91.46
1441.00,91.97
1440.00,92.23
1439.00,92.26
1438.00,92.06
1437.00,91.77
1436.00,91.70
1435.00,92.04
1434.00,92.71
1433.00,93.59
1432.00,94.51
1431.00,95.31
1430.00,95.90
1429.00,96.31
1428.00,96.57
1427.00,96.73
1426.00,96.84
1425.00,96.96
1424.00,97.09
1423.00,97.19
1422.00,97.25
1421.00,97.33
1420.00,97.42
1419.00,97.51
1418.00,97.58
1417.00,97.66
1416.00,97.73
1415.00,97.77
1414.00,97.80
1413.00,97.85
1412.00,97.91
1411.00,97.95
1410.00,97.98
1409.00,98.02
1408.00,98.06
1407.00,98.08
1406.00,98.09
1405.00,98.10
1404.00,98.13
1403.00,98.12
1402.00,98.10
1401.00,98.09
1400.00,98.08
1399.00,98.04
1398.00,97.99
1397.00,97.95
1396.00,97.92
1395.00,97.84
1394.00,97.73
1393.00,97.64
1392.00,97.54
1391.00,97.39
1390.00,97.19
1389.00,96.94
1388.00,96.55
1387.00,95.97
1386.00,95.18
1385.00,94.16
1384.00,92.78
1383.00,90.89
1382.00,88.43
1381.00,85.28
1380.00,81.32
1379.00,76.61
1378.00,71.78
1377.00,67.80
1376.00,65.67
1375.00,66.15
1374.00,69.17
1373.00,73.62
1372.00,78.24
1371.00,82.43
1370.00,86.04
1369.00,88.89
1368.00,90.89
1367.00,92.12
1366.00,92.75
1365.00,92.97
1364.00,92.85
1363.00,92.44
1362.00,91.86
1361.00,91.24
1360.00,90.78
1359.00,90.61
1358.00,90.83
1357.00,91.43
1356.00,92.28
1355.00,93.25
1354.00,94.17
1353.00,94.94
1352.00,95.56
1351.00,96.04
1350.00,96.44
1349.00,96.75
1348.00,96.99
1347.00,97.19
1346.00,97.36
1345.00,97.49
1344.00,97.59
1343.00,97.67
1342.00,97.73
1341.00,97.77
1340.00,97.79
1339.00,97.79
1338.00,97.78
1337.00,97.75
1336.00,97.70
1335.00,97.62
1334.00,97.52
1333.00,97.39
1332.00,97.25
1331.00,97.15
1330.00,97.09
1329.00,97.11
1328.00,97.17
1327.00,97.27
1326.00,97.40
1325.00,97.54
1324.00,97.68
1323.00,97.82
1322.00,97.93
1321.00,98.02
1320.00,98.09
1319.00,98.14
1318.00,98.19
1317.00,98.24
1316.00,98.27
1315.00,98.30
1314.00,98.31
1313.00,98.32
1312.00,98.30
1311.00,98.27
1310.00,98.20
1309.00,98.07
1308.00,97.88
1307.00,97.65
1306.00,97.44
1305.00,97.31
1304.00,97.29
1303.00,97.37
1302.00,97.49
1301.00,97.58
1300.00,97.61
1299.00,97.59
1298.00,97.55
1297.00,97.52
1296.00,97.52
1295.00,97.58
1294.00,97.68
1293.00,97.80
1292.00,97.93
1291.00,98.06
1290.00,98.16
1289.00,98.26
1288.00,98.33
1287.00,98.39
1286.00,98.43
1285.00,98.46
1284.00,98.49
1283.00,98.51
1282.00,98.53
1281.00,98.54
1280.00,98.55
1279.00,98.56
1278.00,98.57
1277.00,98.57
1276.00,98.57
1275.00,98.57
1274.00,98.56
1273.00,98.55
1272.00,98.54
1271.00,98.52
1270.00,98.49
1269.00,98.46
1268.00,98.43
1267.00,98.39
1266.00,98.35
1265.00,98.30
1264.00,98.24
1263.00,98.17
1262.00,98.09
1261.00,97.99
1260.00,97.86
1259.00,97.70
1258.00,97.53
1257.00,97.38
1256.00,97.31
1255.00,97.34
1254.00,97.46
1253.00,97.63
1252.00,97.80
1251.00,97.95
1250.00,98.06
1249.00,98.14
1248.00,98.21
1247.00,98.26
1246.00,98.31
1245.00,98.35
1244.00,98.39
1243.00,98.42
1242.00,98.45
1241.00,98.46
1240.00,98.47
1239.00,98.48
1238.00,98.49
1237.00,98.50
1236.00,98.50
1235.00,98.51
1234.00,98.51
1233.00,98.51
1232.00,98.51
1231.00,98.50
1230.00,98.50
1229.00,98.49
1228.00,98.49
1227.00,98.48
1226.00,98.46
1225.00,98.43
1224.00,98.38
1223.00,98.32
1222.00,98.26
1221.00,98.20
1220.00,98.16
1219.00,98.16
1218.00,98.19
1217.00,98.25
1216.00,98.32
1215.00,98.40
1214.00,98.47
1213.00,98.52
1212.00,98.56
1211.00,98.58
1210.00,98.60
1209.00,98.62
1208.00,98.64
1207.00,98.65
1206.00,98.66
1205.00,98.67
1204.00,98.67
1203.00,98.67
1202.00,98.67
1201.00,98.68
1200.00,98.68
1199.00,98.68
1198.00,98.67
1197.00,98.67
1196.00,98.67
1195.00,98.67
1194.00,98.68
1193.00,98.68
1192.00,98.69
1191.00,98.69
1190.00,98.70
1189.00,98.71
1188.00,98.71
1187.00,98.71
1186.00,98.70
1185.00,98.69
1184.00,98.68
1183.00,98.65
1182.00,98.61
1181.00,98.56
1180.00,98.50
1179.00,98.41
1178.00,98.29
1177.00,98.12
1176.00,97.89
1175.00,97.57
1174.00,97.16
1173.00,96.64
1172.00,96.01
1171.00,95.31
1170.00,94.64
1169.00,94.12
1168.00,93.84
1167.00,93.84
1166.00,94.08
1165.00,94.46
1164.00,94.89
1163.00,95.29
1162.00,95.65
1161.00,95.93
1160.00,96.16
1159.00,96.34
1158.00,96.47
1157.00,96.56
1156.00,96.61
1155.00,96.64
1154.00,96.66
1153.00,96.70
1152.00,96.78
1151.00,96.92
1150.00,97.10
1149.00,97.31
1148.00,97.52
1147.00,97.72
1146.00,97.90
1145.00,98.06
1144.00,98.19
1143.00,98.31
1142.00,98.42
1141.00,98.51
1140.00,98.60
1139.00,98.67
1138.00,98.72
1137.00,98.77
1136.00,98.80
1135.00,98.83
1134.00,98.84
1133.00,98.86
1132.00,98.87
1131.00,98.87
1130.00,98.87
1129.00,98.87
1128.00,98.87
1127.00,98.86
1126.00,98.85
1125.00,98.83
1124.00,98.82
1123.00,98.81
1122.00,98.80
1121.00,98.79
1120.00,98.78
1119.00,98.76
1118.00,98.74
1117.00,98.71
1116.00,98.68
1115.00,98.64
1114.00,98.61
1113.00,98.57
1112.00,98.52
1111.00,98.46
1110.00,98.38
1109.00,98.27
1108.00,98.13
1107.00,97.97
1106.00,97.78
1105.00,97.60
1104.00,97.45
1103.00,97.39
1102.00,97.41
1101.00,97.51
1100.00,97.65
1099.00,97.81
1098.00,97.96
1097.00,98.08
1096.00,98.18
1095.00,98.26
1094.00,98.33
1093.00,98.38
1092.00,98.42
1091.00,98.45
1090.00,98.48
1089.00,98.50
1088.00,98.52
1087.00,98.54
1086.00,98.55
1085.00,98.56
1084.00,98.57
1083.00,98.58
1082.00,98.59
1081.00,98.60
1080.00,98.62
1079.00,98.63
1078.00,98.66
1077.00,98.68
1076.00,98.70
1075.00,98.72
1074.00,98.73
1073.00,98.74
1072.00,98.74
1071.00,98.73
1070.00,98.73
1069.00,98.73
1068.00,98.73
1067.00,98.74
1066.00,98.74
1065.00,98.75
1064.00,98.74
1063.00,98.73
1062.00,98.72
1061.00,98.71
1060.00,98.71
1059.00,98.71
1058.00,98.71
1057.00,98.70
1056.00,98.69
1055.00,98.68
1054.00,98.67
1053.00,98.66
1052.00,98.64
1051.00,98.61
1050.00,98.56
1049.00,98.51
1048.00,98.45
1047.00,98.38
1046.00,98.31
1045.00,98.28
1044.00,98.29
1043.00,98.34
1042.00,98.40
1041.00,98.47
1040.00,98.52
1039.00,98.55
1038.00,98.56
1037.00,98.57
1036.00,98.58
1035.00,98.61
1034.00,98.63
1033.00,98.66
1032.00,98.69
1031.00,98.70
1030.00,98.72
1029.00,98.73
1028.00,98.73
1027.00,98.73
1026.00,98.73
1025.00,98.71
1024.00,98.70
1023.00,98.69
1022.00,98.68
1021.00,98.67
1020.00,98.65
1019.00,98.62
1018.00,98.61
1017.00,98.59
1016.00,98.56
1015.00,98.53
1014.00,98.49
1013.00,98.44
1012.00,98.39
1011.00,98.32
1010.00,98.24
1009.00,98.15
1008.00,98.02
1007.00,97.86
1006.00,97.65
1005.00,97.38
1004.00,97.00
1003.00,96.46
1002.00,95.74
1001.00,94.86
1000.00,93.96
999.00,93.27
998.00,92.99
997.00,93.22
996.00,93.88
995.00,94.74
994.00,95.60
993.00,96.32
992.00,96.85
991.00,97.24
990.00,97.50
989.00,97.68
988.00,97.80
987.00,97.85
986.00,97.86
985.00,97.81
984.00,97.72
983.00,97.56
982.00,97.33
981.00,97.00
980.00,96.55
979.00,95.98
978.00,95.26
977.00,94.43
976.00,93.52
975.00,92.64
974.00,91.96
973.00,91.66
972.00,91.89
971.00,92.61
970.00,93.63
969.00,94.67
968.00,95.55
967.00,96.22
966.00,96.69
965.00,97.02
964.00,97.26
963.00,97.43
962.00,97.57
961.00,97.69
960.00,97.79
959.00,97.88
958.00,97.96
957.00,98.03
956.00,98.10
955.00,98.15
954.00,98.19
953.00,98.23
952.00,98.27
951.00,98.29
950.00,98.32
949.00,98.33
948.00,98.32
947.00,98.30
946.00,98.26
945.00,98.19
944.00,98.09
943.00,97.95
942.00,97.82
941.00,97.73
940.00,97.74
939.00,97.84
938.00,98.02
937.00,98.21
936.00,98.38
935.00,98.51
934.00,98.58
933.00,98.63
932.00,98.66
931.00,98.68
930.00,98.70
929.00,98.71
928.00,98.71
927.00,98.72
926.00,98.74
925.00,98.76
924.00,98.77
923.00,98.77
922.00,98.77
921.00,98.77
920.00,98.76
919.00,98.75
918.00,98.74
917.00,98.73
916.00,98.72
915.00,98.71
914.00,98.69
913.00,98.67
912.00,98.64
911.00,98.61
910.00,98.56
909.00,98.50
908.00,98.40
907.00,98.25
906.00,98.02
905.00,97.70
904.00,97.26
903.00,96.72
902.00,96.15
901.00,95.66
900.00,95.38
899.00,95.39
898.00,95.70
897.00,96.20
896.00,96.77
895.00,97.30
894.00,97.72
893.00,98.01
892.00,98.22
891.00,98.35
890.00,98.44
889.00,98.50
888.00,98.54
887.00,98.57
886.00,98.60
885.00,98.63
884.00,98.66
883.00,98.69
882.00,98.72
881.00,98.74
880.00,98.75
879.00,98.74
878.00,98.74
877.00,98.73
876.00,98.73
875.00,98.72
874.00,98.72
873.00,98.72
872.00,98.72
871.00,98.71
870.00,98.70
869.00,98.69
868.00,98.68
867.00,98.66
866.00,98.64
865.00,98.61
864.00,98.59
863.00,98.56
862.00,98.54
861.00,98.52
860.00,98.50
859.00,98.48
858.00,98.46
857.00,98.43
856.00,98.40
855.00,98.36
854.00,98.31
853.00,98.26
852.00,98.21
851.00,98.13
850.00,98.03
849.00,97.91
848.00,97.74
847.00,97.50
846.00,97.12
845.00,96.51
844.00,95.59
843.00,94.41
842.00,93.28
841.00,92.70
840.00,92.96
839.00,93.96
838.00,95.24
837.00,96.32
836.00,97.04
835.00,97.44
834.00,97.68
833.00,97.84
832.00,97.96
831.00,98.05
830.00,98.11
829.00,98.15
828.00,98.19
827.00,98.23
826.00,98.27
825.00,98.30
824.00,98.33
823.00,98.35
822.00,98.35
821.00,98.32
820.00,98.26
819.00,98.18
818.00,98.07
817.00,97.93
816.00,97.72
815.00,97.42
814.00,96.99
813.00,96.41
812.00,95.72
811.00,95.06
810.00,94.58
809.00,94.45
808.00,94.73
807.00,95.30
806.00,96.01
805.00,96.65
804.00,97.16
803.00,97.52
802.00,97.78
801.00,97.98
800.00,98.13
799.00,98.24
798.00,98.33
797.00,98.40
796.00,98.47
795.00,98.53
794.00,98.59
793.00,98.64
792.00,98.69
791.00,98.74
790.00,98.78
789.00,98.82
788.00,98.87
787.00,98.92
786.00,98.97
785.00,99.02
784.00,99.06
783.00,99.09
782.00,99.12
781.00,99.13
780.00,99.14
779.00,99.16
778.00,99.18
777.00,99.19
776.00,99.19
775.00,99.19
774.00,99.19
773.00,99.19
772.00,99.20
771.00,99.19
770.00,99.18
769.00,99.17
768.00,99.18
767.00,99.19
766.00,99.21
765.00,99.22
764.00,99.23
763.00,99.23
762.00,99.24
761.00,99.24
760.00,99.25
759.00,99.25
758.00,99.25
757.00,99.24
756.00,99.23
755.00,99.22
754.00,99.21
753.00,99.21
752.00,99.21
751.00,99.21
750.00,99.22
749.00,99.22
748.00,99.22
747.00,99.22
746.00,99.23
745.00,99.25
744.00,99.26
743.00,99.26
742.00,99.25
741.00,99.22
740.00,99.21
739.00,99.20
738.00,99.19
737.00,99.18
736.00,99.18
735.00,99.18
734.00,99.19
733.00,99.19
732.00,99.18
731.00,99.17
730.00,99.14
729.00,99.12
728.00,99.10
727.00,99.09
726.00,99.07
725.00,99.05
724.00,99.02
723.00,99.01
722.00,99.01
721.00,99.03
720.00,99.06
719.00,99.07
718.00,99.07
717.00,99.05
716.00,99.02
715.00,99.00
714.00,98.98
713.00,98.96
712.00,98.95
711.00,98.93
710.00,98.91
709.00,98.88
708.00,98.86
707.00,98.85
706.00,98.84
705.00,98.82
704.00,98.81
703.00,98.78
702.00,98.76
701.00,98.75
700.00,98.74
699.00,98.73
698.00,98.72
697.00,98.73
696.00,98.74
695.00,98.76
694.00,98.75
693.00,98.74
692.00,98.72
691.00,98.70
690.00,98.68
689.00,98.65
688.00,98.63
687.00,98.62
686.00,98.62
685.00,98.63
684.00,98.64
683.00,98.64
682.00,98.65
681.00,98.65
680.00,98.67
679.00,98.68
678.00,98.70
677.00,98.70
676.00,98.69
675.00,98.69
674.00,98.70
673.00,98.70
672.00,98.70
671.00,98.69
670.00,98.66
669.00,98.64
668.00,98.61
667.00,98.58
666.00,98.59
665.00,98.63
664.00,98.67
663.00,98.69
662.00,98.70
661.00,98.70
660.00,98.68
659.00,98.66
658.00,98.63
657.00,98.59
656.00,98.56
655.00,98.52
654.00,98.51
653.00,98.51
652.00,98.52
651.00,98.50
650.00,98.44
