Created as New Dataset,PP granule 3mm GF
cm-1,%T
4000.00,99.63
3999.00,99.63
3998.00,99.63
3997.00,99.62
3996.00,99.62
3995.00,99.62
3994.00,99.61
3993.00,99.61
3992.00,99.61
3991.00,99.62
3990.00,99.62
3989.00,99.63
3988.00,99.63
3987.00,99.63
3986.00,99.64
3985.00,99.64
3984.00,99.64
3983.00,99.64
3982.00,99.64
3981.00,99.64
3980.00,99.64
3979.00,99.64
3978.00,99.65
3977.00,99.65
3976.00,99.65
3975.00,99.65
3974.00,99.65
3973.00,99.65
3972.00,99.65
3971.00,99.65
3970.00,99.65
3969.00,99.64
3968.00,99.64
3967.00,99.65
3966.00,99.65
3965.00,99.65
3964.00,99.65
3963.00,99.65
3962.00,99.65
3961.00,99.65
3960.00,99.65
3959.00,99.65
3958.00,99.65
3957.00,99.65
3956.00,99.65
3955.00,99.65
3954.00,99.66
3953.00,99.65
3952.00,99.65
3951.00,99.65
3950.00,99.65
3949.00,99.65
3948.00,99.65
3947.00,99.65
3946.00,99.65
3945.00,99.65
3944.00,99.64
3943.00,99.64
3942.00,99.64
3941.00,99.64
3940.00,99.64
3939.00,99.64
3938.00,99.65
3937.00,99.65
3936.00,99.65
3935.00,99.65
3934.00,99.64
3933.00,99.64
3932.00,99.64
3931.00,99.64
3930.00,99.64
3929.00,99.64
3928.00,99.64
3927.00,99.64
3926.00,99.64
3925.00,99.63
3924.00,99.63
3923.00,99.64
3922.00,99.64
3921.00,99.64
3920.00,99.64
3919.00,99.64
3918.00,99.64
3917.00,99.64
3916.00,99.64
3915.00,99.64
3914.00,99.64
3913.00,99.63
3912.00,99.63
3911.00,99.64
3910.00,99.64
3909.00,99.64
3908.00,99.64
3907.00,99.64
3906.00,99.64
3905.00,99.64
3904.00,99.64
3903.00,99.64
3902.00,99.64
3901.00,99.63
3900.00,99.63
3899.00,99.64
3898.00,99.64
3897.00,99.64
3896.00,99.64
3895.00,99.64
3894.00,99.64
3893.00,99.64
3892.00,99.63
3891.00,99.63
3890.00,99.63
3889.00,99.63
3888.00,99.63
3887.00,99.63
3886.00,99.64
3885.00,99.64
3884.00,99.64
3883.00,99.64
3882.00,99.64
3881.00,99.64
3880.00,99.64
3879.00,99.64
3878.00,99.64
3877.00,99.63
3876.00,99.63
3875.00,99.63
3874.00,99.63
3873.00,99.63
3872.00,99.63
3871.00,99.62
3870.00,99.62
3869.00,99.63
3868.00,99.63
3867.00,99.63
3866.00,99.63
3865.00,99.63
3864.00,99.64
3863.00,99.64
3862.00,99.64
3861.00,99.64
3860.00,99.64
3859.00,99.64
3858.00,99.64
3857.00,99.64
3856.00,99.64
3855.00,99.64
3854.00,99.63
3853.00,99.63
3852.00,99.63
3851.00,99.63
3850.00,99.63
3849.00,99.64
3848.00,99.64
3847.00,99.64
3846.00,99.64
3845.00,99.64
3844.00,99.64
3843.00,99.63
3842.00,99.63
3841.00,99.63
3840.00,99.63
3839.00,99.63
3838.00,99.63
3837.00,99.63
3836.00,99.63
3835.00,99.62
3834.00,99.62
3833.00,99.62
3832.00,99.62
3831.00,99.63
3830.00,99.63
3829.00,99.63
3828.00,99.63
3827.00,99.63
3826.00,99.63
3825.00,99.63
3824.00,99.62
3823.00,99.62
3822.00,99.62
3821.00,99.62
3820.00,99.62
3819.00,99.62
3818.00,99.61
3817.00,99.61
3816.00,99.62
3815.00,99.62
3814.00,99.62
3813.00,99.62
3812.00,99.62
3811.00,99.62
3810.00,99.62
3809.00,99.62
3808.00,99.62
3807.00,99.62
3806.00,99.62
3805.00,99.62
3804.00,99.62
3803.00,99.62
3802.00,99.62
3801.00,99.62
3800.00,99.62
3799.00,99.62
3798.00,99.62
3797.00,99.62
3796.00,99.62
3795.00,99.63
3794.00,99.63
3793.00,99.63
3792.00,99.63
3791.00,99.63
3790.00,99.63
3789.00,99.63
3788.00,99.62
3787.00,99.62
3786.00,99.62
3785.00,99.62
3784.00,99.62
3783.00,99.62
3782.00,99.62
3781.00,99.62
3780.00,99.62
3779.00,99.62
3778.00,99.62
3777.00,99.62
3776.00,99.62
3775.00,99.61
3774.00,99.61
3773.00,99.61
3772.00,99.61
3771.00,99.61
3770.00,99.61
3769.00,99.61
3768.00,99.61
3767.00,99.61
3766.00,99.60
3765.00,99.60
3764.00,99.60
3763.00,99.60
3762.00,99.60
3761.00,99.60
3760.00,99.61
3759.00,99.61
3758.00,99.61
3757.00,99.61
3756.00,99.60
3755.00,99.60
3754.00,99.59
3753.00,99.59
3752.00,99.58
3751.00,99.59
3750.00,99.59
3749.00,99.60
3748.00,99.60
3747.00,99.60
3746.00,99.60
3745.00,99.60
3744.00,99.60
3743.00,99.61
3742.00,99.61
3741.00,99.60
3740.00,99.60
3739.00,99.61
3738.00,99.61
3737.00,99.61
3736.00,99.61
3735.00,99.61
3734.00,99.61
3733.00,99.61
3732.00,99.61
3731.00,99.62
3730.00,99.62
3729.00,99.62
3728.00,99.62
3727.00,99.62
3726.00,99.62
3725.00,99.62
3724.00,99.62
3723.00,99.62
3722.00,99.62
3721.00,99.62
3720.00,99.62
3719.00,99.62
3718.00,99.62
3717.00,99.62
3716.00,99.62
3715.00,99.62
3714.00,99.61
3713.00,99.62
3712.00,99.62
3711.00,99.62
3710.00,99.63
3709.00,99.63
3708.00,99.63
3707.00,99.63
3706.00,99.63
3705.00,99.64
3704.00,99.64
3703.00,99.64
3702.00,99.64
3701.00,99.64
3700.00,99.64
3699.00,99.63
3698.00,99.63
3697.00,99.63
3696.00,99.63
3695.00,99.63
3694.00,99.63
3693.00,99.63
3692.00,99.63
3691.00,99.63
3690.00,99.63
3689.00,99.63
3688.00,99.63
3687.00,99.63
3686.00,99.63
3685.00,99.63
3684.00,99.63
3683.00,99.63
3682.00,99.63
3681.00,99.62
3680.00,99.61
3679.00,99.61
3678.00,99.60
3677.00,99.60
3676.00,99.60
3675.00,99.61
3674.00,99.62
3673.00,99.62
3672.00,99.62
3671.00,99.62
3670.00,99.63
3669.00,99.64
3668.00,99.64
3667.00,99.64
3666.00,99.65
3665.00,99.65
3664.00,99.65
3663.00,99.65
3662.00,99.65
3661.00,99.65
3660.00,99.65
3659.00,99.66
3658.00,99.66
3657.00,99.65
3656.00,99.65
3655.00,99.65
3654.00,99.64
3653.00,99.63
3652.00,99.63
3651.00,99.63
3650.00,99.63
3649.00,99.63
3648.00,99.64
3647.00,99.64
3646.00,99.64
3645.00,99.64
3644.00,99.64
3643.00,99.64
3642.00,99.64
3641.00,99.64
3640.00,99.65
3639.00,99.65
3638.00,99.65
3637.00,99.65
3636.00,99.65
3635.00,99.65
3634.00,99.65
3633.00,99.65
3632.00,99.65
3631.00,99.64
3630.00,99.64
3629.00,99.64
3628.00,99.65
3627.00,99.65
3626.00,99.65
3625.00,99.65
3624.00,99.65
3623.00,99.65
3622.00,99.66
3621.00,99.66
3620.00,99.66
3619.00,99.65
3618.00,99.65
3617.00,99.65
3616.00,99.65
3615.00,99.65
3614.00,99.65
3613.00,99.65
3612.00,99.66
3611.00,99.66
3610.00,99.66
3609.00,99.66
3608.00,99.66
3607.00,99.66
3606.00,99.66
3605.00,99.66
3604.00,99.66
3603.00,99.66
3602.00,99.66
3601.00,99.66
3600.00,99.66
3599.00,99.66
3598.00,99.66
3597.00,99.66
3596.00,99.66
3595.00,99.66
3594.00,99.66
3593.00,99.66
3592.00,99.67
3591.00,99.67
3590.00,99.67
3589.00,99.68
3588.00,99.68
3587.00,99.68
3586.00,99.68
3585.00,99.67
3584.00,99.67
3583.00,99.66
3582.00,99.66
3581.00,99.66
3580.00,99.67
3579.00,99.67
3578.00,99.67
3577.00,99.67
3576.00,99.67
3575.00,99.67
3574.00,99.66
3573.00,99.67
3572.00,99.67
3571.00,99.67
3570.00,99.67
3569.00,99.67
3568.00,99.67
3567.00,99.66
3566.00,99.66
3565.00,99.66
3564.00,99.66
3563.00,99.66
3562.00,99.66
3561.00,99.66
3560.00,99.66
3559.00,99.66
3558.00,99.66
3557.00,99.66
3556.00,99.66
3555.00,99.66
3554.00,99.66
3553.00,99.66
3552.00,99.66
3551.00,99.66
3550.00,99.66
3549.00,99.66
3548.00,99.66
3547.00,99.66
3546.00,99.66
3545.00,99.66
3544.00,99.66
3543.00,99.66
3542.00,99.66
3541.00,99.65
3540.00,99.65
3539.00,99.65
3538.00,99.65
3537.00,99.65
3536.00,99.66
3535.00,99.66
3534.00,99.66
3533.00,99.66
3532.00,99.65
3531.00,99.65
3530.00,99.65
3529.00,99.65
3528.00,99.65
3527.00,99.66
3526.00,99.66
3525.00,99.66
3524.00,99.66
3523.00,99.66
3522.00,99.66
3521.00,99.66
3520.00,99.66
3519.00,99.66
3518.00,99.65
3517.00,99.65
3516.00,99.65
3515.00,99.65
3514.00,99.65
3513.00,99.65
3512.00,99.65
3511.00,99.65
3510.00,99.65
3509.00,99.64
3508.00,99.64
3507.00,99.64
3506.00,99.64
3505.00,99.64
3504.00,99.64
3503.00,99.64
3502.00,99.64
3501.00,99.65
3500.00,99.65
3499.00,99.65
3498.00,99.65
3497.00,99.65
3496.00,99.65
3495.00,99.65
3494.00,99.64
3493.00,99.64
3492.00,99.64
3491.00,99.64
3490.00,99.64
3489.00,99.64
3488.00,99.64
3487.00,99.64
3486.00,99.64
3485.00,99.64
3484.00,99.64
3483.00,99.64
3482.00,99.64
3481.00,99.63
3480.00,99.63
3479.00,99.63
3478.00,99.63
3477.00,99.63
3476.00,99.63
3475.00,99.63
3474.00,99.63
3473.00,99.63
3472.00,99.63
3471.00,99.63
3470.00,99.63
3469.00,99.63
3468.00,99.63
3467.00,99.63
3466.00,99.63
3465.00,99.63
3464.00,99.63
3463.00,99.62
3462.00,99.62
3461.00,99.62
3460.00,99.62
3459.00,99.62
3458.00,99.62
3457.00,99.62
3456.00,99.61
3455.00,99.61
3454.00,99.61
3453.00,99.61
3452.00,99.61
3451.00,99.61
3450.00,99.62
3449.00,99.62
3448.00,99.62
3447.00,99.61
3446.00,99.61
3445.00,99.60
3444.00,99.60
3443.00,99.61
3442.00,99.61
3441.00,99.62
3440.00,99.62
3439.00,99.62
3438.00,99.62
3437.00,99.62
3436.00,99.62
3435.00,99.62
3434.00,99.61
3433.00,99.61
3432.00,99.61
3431.00,99.61
3430.00,99.61
3429.00,99.61
3428.00,99.61
3427.00,99.61
3426.00,99.61
3425.00,99.61
3424.00,99.61
3423.00,99.61
3422.00,99.61
3421.00,99.61
3420.00,99.60
3419.00,99.60
3418.00,99.60
3417.00,99.60
3416.00,99.60
3415.00,99.60
3414.00,99.60
3413.00,99.60
3412.00,99.60
3411.00,99.60
3410.00,99.60
3409.00,99.60
3408.00,99.60
3407.00,99.60
3406.00,99.60
3405.00,99.61
3404.00,99.61
3403.00,99.61
3402.00,99.61
3401.00,99.61
3400.00,99.60
3399.00,99.60
3398.00,99.60
3397.00,99.60
3396.00,99.60
3395.00,99.60
3394.00,99.60
3393.00,99.61
3392.00,99.61
3391.00,99.61
3390.00,99.61
3389.00,99.60
3388.00,99.60
3387.00,99.59
3386.00,99.59
3385.00,99.59
3384.00,99.59
3383.00,99.60
3382.00,99.60
3381.00,99.60
3380.00,99.61
3379.00,99.61
3378.00,99.60
3377.00,99.60
3376.00,99.60
3375.00,99.60
3374.00,99.60
3373.00,99.60
3372.00,99.60
3371.00,99.61
3370.00,99.61
3369.00,99.61
3368.00,99.61
3367.00,99.61
3366.00,99.60
3365.00,99.60
3364.00,99.60
3363.00,99.60
3362.00,99.60
3361.00,99.60
3360.00,99.60
3359.00,99.60
3358.00,99.60
3357.00,99.60
3356.00,99.60
3355.00,99.59
3354.00,99.59
3353.00,99.59
3352.00,99.59
3351.00,99.59
3350.00,99.59
3349.00,99.59
3348.00,99.59
3347.00,99.59
3346.00,99.59
3345.00,99.59
3344.00,99.60
3343.00,99.60
3342.00,99.59
3341.00,99.59
3340.00,99.59
3339.00,99.59
3338.00,99.60
3337.00,99.60
3336.00,99.60
3335.00,99.61
3334.00,99.61
3333.00,99.61
3332.00,99.61
3331.00,99.61
3330.00,99.61
3329.00,99.61
3328.00,99.61
3327.00,99.61
3326.00,99.61
3325.00,99.61
3324.00,99.61
3323.00,99.62
3322.00,99.62
3321.00,99.62
3320.00,99.62
3319.00,99.62
3318.00,99.62
3317.00,99.62
3316.00,99.62
3315.00,99.62
3314.00,99.62
3313.00,99.62
3312.00,99.62
3311.00,99.61
3310.00,99.61
3309.00,99.61
3308.00,99.61
3307.00,99.61
3306.00,99.61
3305.00,99.61
3304.00,99.60
3303.00,99.60
3302.00,99.60
3301.00,99.60
3300.00,99.60
3299.00,99.60
3298.00,99.60
3297.00,99.59
3296.00,99.59
3295.00,99.59
3294.00,99.60
3293.00,99.60
3292.00,99.60
3291.00,99.61
3290.00,99.61
3289.00,99.61
3288.00,99.60
3287.00,99.60
3286.00,99.60
3285.00,99.60
3284.00,99.60
3283.00,99.61
3282.00,99.61
3281.00,99.61
3280.00,99.61
3279.00,99.60
3278.00,99.60
3277.00,99.60
3276.00,99.60
3275.00,99.60
3274.00,99.60
3273.00,99.60
3272.00,99.60
3271.00,99.60
3270.00,99.60
3269.00,99.60
3268.00,99.60
3267.00,99.60
3266.00,99.60
3265.00,99.60
3264.00,99.60
3263.00,99.60
3262.00,99.60
3261.00,99.60
3260.00,99.60
3259.00,99.60
3258.00,99.60
3257.00,99.60
3256.00,99.60
3255.00,99.61
3254.00,99.61
3253.00,99.61
3252.00,99.61
3251.00,99.61
3250.00,99.61
3249.00,99.61
3248.00,99.61
3247.00,99.62
3246.00,99.61
3245.00,99.61
3244.00,99.60
3243.00,99.60
3242.00,99.60
3241.00,99.60
3240.00,99.60
3239.00,99.59
3238.00,99.59
3237.00,99.59
3236.00,99.59
3235.00,99.59
3234.00,99.58
3233.00,99.58
3232.00,99.57
3231.00,99.57
3230.00,99.56
3229.00,99.56
3228.00,99.56
3227.00,99.56
3226.00,99.56
3225.00,99.55
3224.00,99.55
3223.00,99.55
3222.00,99.55
3221.00,99.55
3220.00,99.54
3219.00,99.54
3218.00,99.53
3217.00,99.52
3216.00,99.51
3215.00,99.51
3214.00,99.51
3213.00,99.51
3212.00,99.50
3211.00,99.50
3210.00,99.49
3209.00,99.49
3208.00,99.49
3207.00,99.49
3206.00,99.49
3205.00,99.49
3204.00,99.48
3203.00,99.48
3202.00,99.48
3201.00,99.47
3200.00,99.47
3199.00,99.47
3198.00,99.47
3197.00,99.47
3196.00,99.47
3195.00,99.47
3194.00,99.47
3193.00,99.47
3192.00,99.47
3191.00,99.47
3190.00,99.47
3189.00,99.47
3188.00,99.47
3187.00,99.47
3186.00,99.47
3185.00,99.47
3184.00,99.47
3183.00,99.47
3182.00,99.47
3181.00,99.47
3180.00,99.48
3179.00,99.48
3178.00,99.48
3177.00,99.48
3176.00,99.49
3175.00,99.49
3174.00,99.49
3173.00,99.49
3172.00,99.49
3171.00,99.49
3170.00,99.49
3169.00,99.49
3168.00,99.48
3167.00,99.48
3166.00,99.48
3165.00,99.48
3164.00,99.49
3163.00,99.49
3162.00,99.49
3161.00,99.49
3160.00,99.49
3159.00,99.48
3158.00,99.48
3157.00,99.48
3156.00,99.48
3155.00,99.48
3154.00,99.49
3153.00,99.49
3152.00,99.48
3151.00,99.48
3150.00,99.48
3149.00,99.47
3148.00,99.47
3147.00,99.46
3146.00,99.46
3145.00,99.46
3144.00,99.47
3143.00,99.47
3142.00,99.47
3141.00,99.47
3140.00,99.47
3139.00,99.48
3138.00,99.48
3137.00,99.48
3136.00,99.49
3135.00,99.49
3134.00,99.49
3133.00,99.49
3132.00,99.49
3131.00,99.49
3130.00,99.49
3129.00,99.50
3128.00,99.50
3127.00,99.50
3126.00,99.50
3125.00,99.51
3124.00,99.51
3123.00,99.51
3122.00,99.51
3121.00,99.51
3120.00,99.51
3119.00,99.51
3118.00,99.51
3117.00,99.51
3116.00,99.51
3115.00,99.52
3114.00,99.52
3113.00,99.52
3112.00,99.52
3111.00,99.52
3110.00,99.52
3109.00,99.52
3108.00,99.52
3107.00,99.52
3106.00,99.52
3105.00,99.52
3104.00,99.52
3103.00,99.52
3102.00,99.52
3101.00,99.52
3100.00,99.52
3099.00,99.52
3098.00,99.51
3097.00,99.51
3096.00,99.51
3095.00,99.51
3094.00,99.51
3093.00,99.51
3092.00,99.51
3091.00,99.51
3090.00,99.51
3089.00,99.51
3088.00,99.51
3087.00,99.51
3086.00,99.51
3085.00,99.51
3084.00,99.51
3083.00,99.50
3082.00,99.50
3081.00,99.50
3080.00,99.50
3079.00,99.50
3078.00,99.50
3077.00,99.50
3076.00,99.50
3075.00,99.50
3074.00,99.49
3073.00,99.49
3072.00,99.49
3071.00,99.49
3070.00,99.48
3069.00,99.48
3068.00,99.48
3067.00,99.48
3066.00,99.48
3065.00,99.48
3064.00,99.47
3063.00,99.47
3062.00,99.46
3061.00,99.46
3060.00,99.46
3059.00,99.45
3058.00,99.45
3057.00,99.44
3056.00,99.44
3055.00,99.44
3054.00,99.43
3053.00,99.43
3052.00,99.43
3051.00,99.42
3050.00,99.42
3049.00,99.41
3048.00,99.41
3047.00,99.41
3046.00,99.41
3045.00,99.41
3044.00,99.41
3043.00,99.40
3042.00,99.40
3041.00,99.40
3040.00,99.39
3039.00,99.39
3038.00,99.38
3037.00,99.38
3036.00,99.38
3035.00,99.37
3034.00,99.36
3033.00,99.36
3032.00,99.35
3031.00,99.34
3030.00,99.33
3029.00,99.32
3028.00,99.31
3027.00,99.31
3026.00,99.30
3025.00,99.29
3024.00,99.28
3023.00,99.27
3022.00,99.26
3021.00,99.25
3020.00,99.23
3019.00,99.22
3018.00,99.20
3017.00,99.19
3016.00,99.17
3015.00,99.15
3014.00,99.12
3013.00,99.10
3012.00,99.08
3011.00,99.06
3010.00,99.04
3009.00,99.02
3008.00,98.99
3007.00,98.96
3006.00,98.93
3005.00,98.90
3004.00,98.86
3003.00,98.83
3002.00,98.79
3001.00,98.75
3000.00,98.70
2999.00,98.65
2998.00,98.60
2997.00,98.55
2996.00,98.48
2995.00,98.42
2994.00,98.34
2993.00,98.25
2992.00,98.16
2991.00,98.05
2990.00,97.95
2989.00,97.83
2988.00,97.69
2987.00,97.54
2986.00,97.36
2985.00,97.17
2984.00,96.95
2983.00,96.71
2982.00,96.43
2981.00,96.12
2980.00,95.77
2979.00,95.38
2978.00,94.94
2977.00,94.44
2976.00,93.87
2975.00,93.23
2974.00,92.51
2973.00,91.69
2972.00,90.78
2971.00,89.77
2970.00,88.67
2969.00,87.48
2968.00,86.21
2967.00,84.87
2966.00,83.50
2965.00,82.12
2964.00,80.81
2963.00,79.61
2962.00,78.57
2961.00,77.73
2960.00,77.06
2959.00,76.54
2958.00,76.11
2957.00,75.71
2956.00,75.28
2955.00,74.80
2954.00,74.27
2953.00,73.77
2952.00,73.39
2951.00,73.23
2950.00,73.39
2949.00,73.93
2948.00,74.85
2947.00,76.11
2946.00,77.58
2945.00,79.13
2944.00,80.63
2943.00,81.94
2942.00,82.98
2941.00,83.69
2940.00,84.08
2939.00,84.16
2938.00,83.95
2937.00,83.51
2936.00,82.84
2935.00,81.99
2934.00,80.98
2933.00,79.83
2932.00,78.57
2931.00,77.23
2930.00,75.84
2929.00,74.45
2928.00,73.07
2927.00,71.73
2926.00,70.43
2925.00,69.17
2924.00,67.94
2923.00,66.73
2922.00,65.56
2921.00,64.50
2920.00,63.63
2919.00,63.05
2918.00,62.85
2917.00,63.09
2916.00,63.74
2915.00,64.71
2914.00,65.88
2913.00,67.10
2912.00,68.28
2911.00,69.35
2910.00,70.31
2909.00,71.17
2908.00,71.96
2907.00,72.72
2906.00,73.48
2905.00,74.26
2904.00,75.06
2903.00,75.88
2902.00,76.71
2901.00,77.53
2900.00,78.34
2899.00,79.12
2898.00,79.86
2897.00,80.54
2896.00,81.14
2895.00,81.68
2894.00,82.12
2893.00,82.50
2892.00,82.79
2891.00,83.03
2890.00,83.20
2889.00,83.33
2888.00,83.41
2887.00,83.45
2886.00,83.44
2885.00,83.38
2884.00,83.27
2883.00,83.09
2882.00,82.86
2881.00,82.61
2880.00,82.35
2879.00,82.15
2878.00,82.03
2877.00,82.01
2876.00,82.08
2875.00,82.18
2874.00,82.27
2873.00,82.29
2872.00,82.23
2871.00,82.09
2870.00,81.90
2869.00,81.74
2868.00,81.68
2867.00,81.82
2866.00,82.23
2865.00,82.92
2864.00,83.85
2863.00,84.90
2862.00,85.94
2861.00,86.84
2860.00,87.52
2859.00,87.95
2858.00,88.12
2857.00,88.05
2856.00,87.76
2855.00,87.25
2854.00,86.56
2853.00,85.77
2852.00,84.98
2851.00,84.36
2850.00,84.02
2849.00,83.98
2848.00,84.14
2847.00,84.33
2846.00,84.38
2845.00,84.20
2844.00,83.78
2843.00,83.19
2842.00,82.52
2841.00,81.88
2840.00,81.38
2839.00,81.11
2838.00,81.18
2837.00,81.64
2836.00,82.51
2835.00,83.71
2834.00,85.16
2833.00,86.70
2832.00,88.21
2831.00,89.60
2830.00,90.79
2829.00,91.79
2828.00,92.61
2827.00,93.28
2826.00,93.83
2825.00,94.28
2824.00,94.66
2823.00,94.98
2822.00,95.25
2821.00,95.49
2820.00,95.70
2819.00,95.88
2818.00,96.04
2817.00,96.17
2816.00,96.30
2815.00,96.40
2814.00,96.50
2813.00,96.60
2812.00,96.68
2811.00,96.77
2810.00,96.86
2809.00,96.94
2808.00,97.04
2807.00,97.14
2806.00,97.24
2805.00,97.35
2804.00,97.45
2803.00,97.55
2802.00,97.63
2801.00,97.70
2800.00,97.76
2799.00,97.81
2798.00,97.85
2797.00,97.89
2796.00,97.93
2795.00,97.97
2794.00,98.02
2793.00,98.06
2792.00,98.12
2791.00,98.17
2790.00,98.23
2789.00,98.29
2788.00,98.34
2787.00,98.39
2786.00,98.44
2785.00,98.49
2784.00,98.53
2783.00,98.57
2782.00,98.61
2781.00,98.64
2780.00,98.66
2779.00,98.69
2778.00,98.71
2777.00,98.73
2776.00,98.75
2775.00,98.77
2774.00,98.79
2773.00,98.80
2772.00,98.82
2771.00,98.83
2770.00,98.84
2769.00,98.84
2768.00,98.85
2767.00,98.86
2766.00,98.87
2765.00,98.88
2764.00,98.89
2763.00,98.90
2762.00,98.91
2761.00,98.92
2760.00,98.93
2759.00,98.93
2758.00,98.94
2757.00,98.95
2756.00,98.95
2755.00,98.96
2754.00,98.96
2753.00,98.96
2752.00,98.96
2751.00,98.96
2750.00,98.96
2749.00,98.96
2748.00,98.95
2747.00,98.95
2746.00,98.94
2745.00,98.93
2744.00,98.92
2743.00,98.90
2742.00,98.89
2741.00,98.86
2740.00,98.84
2739.00,98.82
2738.00,98.79
2737.00,98.77
2736.00,98.75
2735.00,98.73
2734.00,98.71
2733.00,98.69
2732.00,98.66
2731.00,98.63
2730.00,98.59
2729.00,98.55
2728.00,98.50
2727.00,98.45
2726.00,98.41
2725.00,98.38
2724.00,98.36
2723.00,98.35
2722.00,98.36
2721.00,98.39
2720.00,98.44
2719.00,98.49
2718.00,98.55
2717.00,98.60
2716.00,98.65
2715.00,98.70
2714.00,98.74
2713.00,98.78
2712.00,98.81
2711.00,98.83
2710.00,98.86
2709.00,98.89
2708.00,98.91
2707.00,98.93
2706.00,98.95
2705.00,98.96
2704.00,98.98
2703.00,98.99
2702.00,99.01
2701.00,99.02
2700.00,99.03
2699.00,99.04
2698.00,99.04
2697.00,99.05
2696.00,99.05
2695.00,99.05
2694.00,99.05
2693.00,99.05
2692.00,99.05
2691.00,99.05
2690.00,99.05
2689.00,99.05
2688.00,99.05
2687.00,99.04
2686.00,99.04
2685.00,99.04
2684.00,99.04
2683.00,99.04
2682.00,99.04
2681.00,99.04
2680.00,99.04
2679.00,99.04
2678.00,99.03
2677.00,99.03
2676.00,99.03
2675.00,99.04
2674.00,99.04
2673.00,99.05
2672.00,99.05
2671.00,99.05
2670.00,99.05
2669.00,99.06
2668.00,99.06
2667.00,99.05
2666.00,99.05
2665.00,99.04
2664.00,99.03
2663.00,99.02
2662.00,99.01
2661.00,99.01
2660.00,99.00
2659.00,99.00
2658.00,99.00
2657.00,99.00
2656.00,99.00
2655.00,99.01
2654.00,99.01
2653.00,99.02
2652.00,99.03
2651.00,99.03
2650.00,99.04
2649.00,99.04
2648.00,99.05
2647.00,99.05
2646.00,99.05
2645.00,99.06
2644.00,99.06
2643.00,99.07
2642.00,99.07
2641.00,99.08
2640.00,99.09
2639.00,99.09
2638.00,99.09
2637.00,99.09
2636.00,99.09
2635.00,99.09
2634.00,99.09
2633.00,99.09
2632.00,99.08
2631.00,99.08
2630.00,99.08
2629.00,99.08
2628.00,99.07
2627.00,99.07
2626.00,99.07
2625.00,99.06
2624.00,99.06
2623.00,99.05
2622.00,99.05
2621.00,99.05
2620.00,99.05
2619.00,99.05
2618.00,99.05
2617.00,99.05
2616.00,99.05
2615.00,99.05
2614.00,99.05
2613.00,99.06
2612.00,99.07
2611.00,99.08
2610.00,99.09
2609.00,99.10
2608.00,99.11
2607.00,99.12
2606.00,99.14
2605.00,99.15
2604.00,99.17
2603.00,99.17
2602.00,99.18
2601.00,99.18
2600.00,99.18
2599.00,99.18
2598.00,99.18
2597.00,99.19
2596.00,99.19
2595.00,99.18
2594.00,99.18
2593.00,99.17
2592.00,99.16
2591.00,99.15
2590.00,99.14
2589.00,99.13
2588.00,99.11
2587.00,99.09
2586.00,99.07
2585.00,99.06
2584.00,99.05
2583.00,99.05
2582.00,99.05
2581.00,99.06
2580.00,99.07
2579.00,99.08
2578.00,99.10
2577.00,99.11
2576.00,99.13
2575.00,99.15
2574.00,99.17
2573.00,99.19
2572.00,99.21
2571.00,99.22
2570.00,99.24
2569.00,99.25
2568.00,99.27
2567.00,99.28
2566.00,99.29
2565.00,99.30
2564.00,99.31
2563.00,99.31
2562.00,99.31
2561.00,99.31
2560.00,99.30
2559.00,99.30
2558.00,99.30
2557.00,99.31
2556.00,99.32
2555.00,99.33
2554.00,99.33
2553.00,99.34
2552.00,99.34
2551.00,99.35
2550.00,99.35
2549.00,99.36
2548.00,99.36
2547.00,99.37
2546.00,99.38
2545.00,99.39
2544.00,99.40
2543.00,99.40
2542.00,99.41
2541.00,99.41
2540.00,99.41
2539.00,99.42
2538.00,99.42
2537.00,99.42
2536.00,99.42
2535.00,99.43
2534.00,99.44
2533.00,99.44
2532.00,99.45
2531.00,99.45
2530.00,99.45
2529.00,99.45
2528.00,99.45
2527.00,99.45
2526.00,99.46
2525.00,99.46
2524.00,99.47
2523.00,99.47
2522.00,99.48
2521.00,99.48
2520.00,99.49
2519.00,99.49
2518.00,99.49
2517.00,99.50
2516.00,99.50
2515.00,99.51
2514.00,99.51
2513.00,99.51
2512.00,99.51
2511.00,99.51
2510.00,99.52
2509.00,99.52
2508.00,99.52
2507.00,99.53
2506.00,99.53
2505.00,99.53
2504.00,99.53
2503.00,99.53
2502.00,99.53
2501.00,99.53
2500.00,99.53
2499.00,99.53
2498.00,99.53
2497.00,99.53
2496.00,99.53
2495.00,99.53
2494.00,99.53
2493.00,99.53
2492.00,99.53
2491.00,99.53
2490.00,99.53
2489.00,99.53
2488.00,99.54
2487.00,99.54
2486.00,99.54
2485.00,99.54
2484.00,99.54
2483.00,99.54
2482.00,99.54
2481.00,99.54
2480.00,99.54
2479.00,99.55
2478.00,99.55
2477.00,99.55
2476.00,99.55
2475.00,99.56
2474.00,99.56
2473.00,99.56
2472.00,99.57
2471.00,99.57
2470.00,99.56
2469.00,99.56
2468.00,99.56
2467.00,99.56
2466.00,99.56
2465.00,99.56
2464.00,99.56
2463.00,99.56
2462.00,99.56
2461.00,99.55
2460.00,99.55
2459.00,99.54
2458.00,99.54
2457.00,99.54
2456.00,99.53
2455.00,99.52
2454.00,99.52
2453.00,99.52
2452.00,99.51
2451.00,99.52
2450.00,99.52
2449.00,99.52
2448.00,99.52
2447.00,99.52
2446.00,99.53
2445.00,99.53
2444.00,99.53
2443.00,99.53
2442.00,99.53
2441.00,99.53
2440.00,99.53
2439.00,99.53
2438.00,99.53
2437.00,99.52
2436.00,99.52
2435.00,99.51
2434.00,99.51
2433.00,99.51
2432.00,99.51
2431.00,99.51
2430.00,99.51
2429.00,99.51
2428.00,99.51
2427.00,99.51
2426.00,99.52
2425.00,99.53
2424.00,99.53
2423.00,99.53
2422.00,99.54
2421.00,99.54
2420.00,99.54
2419.00,99.54
2418.00,99.54
2417.00,99.54
2416.00,99.54
2415.00,99.54
2414.00,99.54
2413.00,99.54
2412.00,99.54
2411.00,99.54
2410.00,99.54
2409.00,99.55
2408.00,99.56
2407.00,99.57
2406.00,99.58
2405.00,99.58
2404.00,99.58
2403.00,99.57
2402.00,99.57
2401.00,99.57
2400.00,99.57
2399.00,99.57
2398.00,99.57
2397.00,99.57
2396.00,99.57
2395.00,99.57
2394.00,99.58
2393.00,99.58
2392.00,99.59
2391.00,99.59
2390.00,99.59
2389.00,99.60
2388.00,99.60
2387.00,99.61
2386.00,99.61
2385.00,99.62
2384.00,99.63
2383.00,99.63
2382.00,99.64
2381.00,99.65
2380.00,99.65
2379.00,99.66
2378.00,99.67
2377.00,99.68
2376.00,99.68
2375.00,99.68
2374.00,99.68
2373.00,99.67
2372.00,99.67
2371.00,99.68
2370.00,99.68
2369.00,99.67
2368.00,99.66
2367.00,99.66
2366.00,99.66
2365.00,99.66
2364.00,99.67
2363.00,99.66
2362.00,99.65
2361.00,99.64
2360.00,99.62
2359.00,99.61
2358.00,99.61
2357.00,99.63
2356.00,99.64
2355.00,99.65
2354.00,99.65
2353.00,99.64
2352.00,99.64
2351.00,99.64
2350.00,99.64
2349.00,99.64
2348.00,99.65
2347.00,99.65
2346.00,99.65
2345.00,99.63
2344.00,99.61
2343.00,99.60
2342.00,99.59
2341.00,99.59
2340.00,99.59
2339.00,99.58
2338.00,99.57
2337.00,99.57
2336.00,99.56
2335.00,99.56
2334.00,99.56
2333.00,99.57
2332.00,99.58
2331.00,99.58
2330.00,99.58
2329.00,99.58
2328.00,99.56
2327.00,99.52
2326.00,99.46
2325.00,99.39
2324.00,99.35
2323.00,99.34
2322.00,99.36
2321.00,99.39
2320.00,99.42
2319.00,99.43
2318.00,99.44
2317.00,99.45
2316.00,99.46
2315.00,99.47
2314.00,99.48
2313.00,99.49
2312.00,99.49
2311.00,99.49
2310.00,99.49
2309.00,99.49
2308.00,99.49
2307.00,99.49
2306.00,99.48
2305.00,99.48
2304.00,99.48
2303.00,99.47
2302.00,99.47
2301.00,99.46
2300.00,99.46
2299.00,99.46
2298.00,99.45
2297.00,99.45
2296.00,99.44
2295.00,99.44
2294.00,99.43
2293.00,99.42
2292.00,99.41
2291.00,99.40
2290.00,99.38
2289.00,99.36
2288.00,99.35
2287.00,99.34
2286.00,99.33
2285.00,99.33
2284.00,99.34
2283.00,99.36
2282.00,99.37
2281.00,99.38
2280.00,99.39
2279.00,99.40
2278.00,99.40
2277.00,99.41
2276.00,99.41
2275.00,99.41
2274.00,99.41
2273.00,99.41
2272.00,99.41
2271.00,99.41
2270.00,99.41
2269.00,99.41
2268.00,99.42
2267.00,99.43
2266.00,99.44
2265.00,99.45
2264.00,99.45
2263.00,99.45
2262.00,99.45
2261.00,99.44
2260.00,99.43
2259.00,99.42
2258.00,99.41
2257.00,99.40
2256.00,99.41
2255.00,99.43
2254.00,99.45
2253.00,99.46
2252.00,99.47
2251.00,99.47
2250.00,99.47
2249.00,99.46
2248.00,99.46
2247.00,99.45
2246.00,99.45
2245.00,99.46
2244.00,99.46
2243.00,99.46
2242.00,99.46
2241.00,99.45
2240.00,99.46
2239.00,99.46
2238.00,99.46
2237.00,99.46
2236.00,99.45
2235.00,99.45
2234.00,99.45
2233.00,99.44
2232.00,99.45
2231.00,99.45
2230.00,99.45
2229.00,99.46
2228.00,99.46
2227.00,99.47
2226.00,99.47
2225.00,99.48
2224.00,99.48
2223.00,99.48
2222.00,99.47
2221.00,99.47
2220.00,99.47
2219.00,99.47
2218.00,99.47
2217.00,99.47
2216.00,99.46
2215.00,99.46
2214.00,99.45
2213.00,99.45
2212.00,99.44
2211.00,99.44
2210.00,99.44
2209.00,99.44
2208.00,99.44
2207.00,99.44
2206.00,99.44
2205.00,99.43
2204.00,99.42
2203.00,99.41
2202.00,99.39
2201.00,99.38
2200.00,99.38
2199.00,99.38
2198.00,99.38
2197.00,99.38
2196.00,99.38
2195.00,99.38
2194.00,99.37
2193.00,99.37
2192.00,99.36
2191.00,99.35
2190.00,99.34
2189.00,99.32
2188.00,99.30
2187.00,99.28
2186.00,99.27
2185.00,99.28
2184.00,99.31
2183.00,99.35
2182.00,99.40
2181.00,99.43
2180.00,99.44
2179.00,99.43
2178.00,99.40
2177.00,99.39
2176.00,99.39
2175.00,99.41
2174.00,99.41
2173.00,99.39
2172.00,99.36
2171.00,99.33
2170.00,99.29
2169.00,99.25
2168.00,99.22
2167.00,99.19
2166.00,99.17
2165.00,99.15
2164.00,99.13
2163.00,99.10
2162.00,99.09
2161.00,99.13
2160.00,99.26
2159.00,99.47
2158.00,99.68
2157.00,99.83
2156.00,99.89
2155.00,99.89
2154.00,99.86
2153.00,99.82
2152.00,99.79
2151.00,99.77
2150.00,99.75
2149.00,99.74
2148.00,99.74
2147.00,99.74
2146.00,99.74
2145.00,99.74
2144.00,99.75
2143.00,99.75
2142.00,99.75
2141.00,99.75
2140.00,99.73
2139.00,99.73
2138.00,99.73
2137.00,99.75
2136.00,99.77
2135.00,99.81
2134.00,99.84
2133.00,99.86
2132.00,99.85
2131.00,99.83
2130.00,99.80
2129.00,99.77
2128.00,99.75
2127.00,99.73
2126.00,99.72
2125.00,99.70
2124.00,99.69
2123.00,99.68
2122.00,99.67
2121.00,99.66
2120.00,99.65
2119.00,99.64
2118.00,99.62
2117.00,99.61
2116.00,99.58
2115.00,99.56
2114.00,99.55
2113.00,99.55
2112.00,99.55
2111.00,99.56
2110.00,99.56
2109.00,99.56
2108.00,99.56
2107.00,99.56
2106.00,99.55
2105.00,99.55
2104.00,99.55
2103.00,99.55
2102.00,99.55
2101.00,99.54
2100.00,99.54
2099.00,99.54
2098.00,99.55
2097.00,99.56
2096.00,99.58
2095.00,99.61
2094.00,99.64
2093.00,99.65
2092.00,99.64
2091.00,99.62
2090.00,99.60
2089.00,99.58
2088.00,99.57
2087.00,99.56
2086.00,99.56
2085.00,99.56
2084.00,99.55
2083.00,99.54
2082.00,99.53
2081.00,99.52
2080.00,99.52
2079.00,99.52
2078.00,99.52
2077.00,99.51
2076.00,99.51
2075.00,99.51
2074.00,99.52
2073.00,99.52
2072.00,99.52
2071.00,99.52
2070.00,99.53
2069.00,99.53
2068.00,99.53
2067.00,99.53
2066.00,99.53
2065.00,99.53
2064.00,99.52
2063.00,99.53
2062.00,99.54
2061.00,99.55
2060.00,99.56
2059.00,99.55
2058.00,99.54
2057.00,99.52
2056.00,99.51
2055.00,99.50
2054.00,99.49
2053.00,99.46
2052.00,99.39
2051.00,99.33
2050.00,99.30
2049.00,99.33
2048.00,99.38
2047.00,99.42
2046.00,99.43
2045.00,99.42
2044.00,99.41
2043.00,99.41
2042.00,99.42
2041.00,99.41
2040.00,99.40
2039.00,99.37
2038.00,99.34
2037.00,99.33
2036.00,99.33
2035.00,99.36
2034.00,99.41
2033.00,99.46
2032.00,99.50
2031.00,99.51
2030.00,99.52
2029.00,99.52
2028.00,99.52
2027.00,99.52
2026.00,99.53
2025.00,99.52
2024.00,99.51
2023.00,99.50
2022.00,99.50
2021.00,99.51
2020.00,99.53
2019.00,99.54
2018.00,99.54
2017.00,99.53
2016.00,99.53
2015.00,99.53
2014.00,99.53
2013.00,99.52
2012.00,99.51
2011.00,99.50
2010.00,99.50
2009.00,99.51
2008.00,99.54
2007.00,99.59
2006.00,99.64
2005.00,99.66
2004.00,99.65
2003.00,99.63
2002.00,99.61
2001.00,99.59
2000.00,99.57
1999.00,99.57
1998.00,99.56
1997.00,99.54
1996.00,99.53
1995.00,99.52
1994.00,99.52
1993.00,99.52
1992.00,99.51
1991.00,99.50
1990.00,99.48
1989.00,99.46
1988.00,99.45
1987.00,99.43
1986.00,99.42
1985.00,99.41
1984.00,99.38
1983.00,99.35
1982.00,99.31
1981.00,99.26
1980.00,99.23
1979.00,99.27
1978.00,99.36
1977.00,99.46
1976.00,99.54
1975.00,99.57
1974.00,99.58
1973.00,99.58
1972.00,99.57
1971.00,99.57
1970.00,99.57
1969.00,99.57
1968.00,99.58
1967.00,99.59
1966.00,99.61
1965.00,99.63
1964.00,99.63
1963.00,99.62
1962.00,99.62
1961.00,99.63
1960.00,99.66
1959.00,99.69
1958.00,99.71
1957.00,99.71
1956.00,99.70
1955.00,99.70
1954.00,99.69
1953.00,99.68
1952.00,99.68
1951.00,99.68
1950.00,99.69
1949.00,99.70
1948.00,99.71
1947.00,99.71
1946.00,99.71
1945.00,99.72
1944.00,99.73
1943.00,99.73
1942.00,99.73
1941.00,99.71
1940.00,99.70
1939.00,99.69
1938.00,99.69
1937.00,99.69
1936.00,99.69
1935.00,99.70
1934.00,99.71
1933.00,99.71
1932.00,99.71
1931.00,99.71
1930.00,99.70
1929.00,99.70
1928.00,99.69
1927.00,99.70
1926.00,99.71
1925.00,99.71
1924.00,99.70
1923.00,99.69
1922.00,99.68
1921.00,99.67
1920.00,99.67
1919.00,99.67
1918.00,99.67
1917.00,99.67
1916.00,99.66
1915.00,99.66
1914.00,99.66
1913.00,99.67
1912.00,99.67
1911.00,99.67
1910.00,99.67
1909.00,99.67
1908.00,99.67
1907.00,99.67
1906.00,99.67
1905.00,99.66
1904.00,99.66
1903.00,99.66
1902.00,99.67
1901.00,99.67
1900.00,99.66
1899.00,99.66
1898.00,99.65
1897.00,99.65
1896.00,99.66
1895.00,99.66
1894.00,99.66
1893.00,99.65
1892.00,99.65
1891.00,99.65
1890.00,99.65
1889.00,99.66
1888.00,99.67
1887.00,99.68
1886.00,99.68
1885.00,99.68
1884.00,99.68
1883.00,99.69
1882.00,99.69
1881.00,99.69
1880.00,99.69
1879.00,99.69
1878.00,99.69
1877.00,99.69
1876.00,99.69
1875.00,99.70
1874.00,99.70
1873.00,99.70
1872.00,99.70
1871.00,99.70
1870.00,99.69
1869.00,99.69
1868.00,99.68
1867.00,99.68
1866.00,99.69
1865.00,99.69
1864.00,99.69
1863.00,99.69
1862.00,99.69
1861.00,99.69
1860.00,99.69
1859.00,99.69
1858.00,99.69
1857.00,99.69
1856.00,99.69
1855.00,99.68
1854.00,99.68
1853.00,99.68
1852.00,99.69
1851.00,99.69
1850.00,99.69
1849.00,99.69
1848.00,99.68
1847.00,99.68
1846.00,99.68
1845.00,99.68
1844.00,99.68
1843.00,99.68
1842.00,99.68
1841.00,99.67
1840.00,99.67
1839.00,99.67
1838.00,99.67
1837.00,99.67
1836.00,99.67
1835.00,99.66
1834.00,99.66
1833.00,99.66
1832.00,99.66
1831.00,99.66
1830.00,99.66
1829.00,99.65
1828.00,99.65
1827.00,99.65
1826.00,99.66
1825.00,99.66
1824.00,99.66
1823.00,99.65
1822.00,99.66
1821.00,99.67
1820.00,99.68
1819.00,99.70
1818.00,99.72
1817.00,99.74
1816.00,99.74
1815.00,99.73
1814.00,99.72
1813.00,99.71
1812.00,99.70
1811.00,99.70
1810.00,99.70
1809.00,99.69
1808.00,99.69
1807.00,99.68
1806.00,99.68
1805.00,99.67
1804.00,99.67
1803.00,99.66
1802.00,99.66
1801.00,99.66
1800.00,99.65
1799.00,99.65
1798.00,99.65
1797.00,99.66
1796.00,99.66
1795.00,99.66
1794.00,99.67
1793.00,99.66
1792.00,99.66
1791.00,99.65
1790.00,99.64
1789.00,99.63
1788.00,99.63
1787.00,99.62
1786.00,99.62
1785.00,99.62
1784.00,99.63
1783.00,99.63
1782.00,99.63
1781.00,99.63
1780.00,99.62
1779.00,99.62
1778.00,99.62
1777.00,99.62
1776.00,99.63
1775.00,99.63
1774.00,99.63
1773.00,99.63
1772.00,99.62
1771.00,99.61
1770.00,99.60
1769.00,99.60
1768.00,99.59
1767.00,99.59
1766.00,99.58
1765.00,99.58
1764.00,99.57
1763.00,99.56
1762.00,99.55
1761.00,99.53
1760.00,99.52
1759.00,99.50
1758.00,99.48
1757.00,99.46
1756.00,99.42
1755.00,99.39
1754.00,99.35
1753.00,99.30
1752.00,99.23
1751.00,99.13
1750.00,98.98
1749.00,98.77
1748.00,98.47
1747.00,98.10
1746.00,97.73
1745.00,97.42
1744.00,97.24
1743.00,97.23
1742.00,97.32
1741.00,97.45
1740.00,97.56
1739.00,97.61
1738.00,97.61
1737.00,97.56
1736.00,97.48
1735.00,97.41
1734.00,97.42
1733.00,97.53
1732.00,97.72
1731.00,97.95
1730.00,98.18
1729.00,98.39
1728.00,98.55
1727.00,98.68
1726.00,98.80
1725.00,98.91
1724.00,99.01
1723.00,99.09
1722.00,99.16
1721.00,99.21
1720.00,99.24
1719.00,99.28
1718.00,99.33
1717.00,99.35
1716.00,99.37
1715.00,99.38
1714.00,99.39
1713.00,99.40
1712.00,99.40
1711.00,99.41
1710.00,99.41
1709.00,99.41
1708.00,99.41
1707.00,99.41
1706.00,99.40
1705.00,99.40
1704.00,99.40
1703.00,99.41
1702.00,99.41
1701.00,99.42
1700.00,99.41
1699.00,99.41
1698.00,99.41
1697.00,99.40
1696.00,99.40
1695.00,99.40
1694.00,99.40
1693.00,99.40
1692.00,99.40
1691.00,99.41
1690.00,99.42
1689.00,99.43
1688.00,99.43
1687.00,99.44
1686.00,99.45
1685.00,99.45
1684.00,99.45
1683.00,99.45
1682.00,99.45
1681.00,99.45
1680.00,99.45
1679.00,99.45
1678.00,99.44
1677.00,99.44
1676.00,99.44
1675.00,99.44
1674.00,99.44
1673.00,99.43
1672.00,99.43
1671.00,99.43
1670.00,99.43
1669.00,99.43
1668.00,99.43
1667.00,99.43
1666.00,99.43
1665.00,99.43
1664.00,99.42
1663.00,99.42
1662.00,99.42
1661.00,99.42
1660.00,99.41
1659.00,99.41
1658.00,99.41
1657.00,99.41
1656.00,99.40
1655.00,99.40
1654.00,99.40
1653.00,99.38
1652.00,99.38
1651.00,99.37
1650.00,99.37
1649.00,99.37
1648.00,99.36
1647.00,99.35
1646.00,99.35
1645.00,99.35
1644.00,99.35
1643.00,99.35
1642.00,99.36
1641.00,99.36
1640.00,99.37
1639.00,99.37
1638.00,99.38
1637.00,99.37
1636.00,99.37
1635.00,99.37
1634.00,99.37
1633.00,99.37
1632.00,99.38
1631.00,99.38
1630.00,99.38
1629.00,99.38
1628.00,99.38
1627.00,99.39
1626.00,99.39
1625.00,99.39
1624.00,99.39
1623.00,99.40
1622.00,99.40
1621.00,99.41
1620.00,99.41
1619.00,99.42
1618.00,99.42
1617.00,99.42
1616.00,99.42
1615.00,99.42
1614.00,99.43
1613.00,99.43
1612.00,99.43
1611.00,99.43
1610.00,99.44
1609.00,99.44
1608.00,99.44
1607.00,99.44
1606.00,99.45
1605.00,99.45
1604.00,99.45
1603.00,99.45
1602.00,99.45
1601.00,99.45
1600.00,99.45
1599.00,99.45
1598.00,99.45
1597.00,99.46
1596.00,99.46
1595.00,99.46
1594.00,99.46
1593.00,99.45
1592.00,99.45
1591.00,99.45
1590.00,99.45
1589.00,99.45
1588.00,99.45
1587.00,99.45
1586.00,99.46
1585.00,99.45
1584.00,99.45
1583.00,99.45
1582.00,99.44
1581.00,99.44
1580.00,99.43
1579.00,99.43
1578.00,99.43
1577.00,99.43
1576.00,99.42
1575.00,99.42
1574.00,99.42
1573.00,99.42
1572.00,99.42
1571.00,99.42
1570.00,99.43
1569.00,99.43
1568.00,99.43
1567.00,99.43
1566.00,99.43
1565.00,99.43
1564.00,99.42
1563.00,99.42
1562.00,99.42
1561.00,99.41
1560.00,99.40
1559.00,99.41
1558.00,99.41
1557.00,99.40
1556.00,99.40
1555.00,99.39
1554.00,99.39
1553.00,99.39
1552.00,99.38
1551.00,99.38
1550.00,99.38
1549.00,99.37
1548.00,99.36
1547.00,99.36
1546.00,99.37
1545.00,99.37
1544.00,99.36
1543.00,99.36
1542.00,99.37
1541.00,99.37
1540.00,99.37
1539.00,99.38
1538.00,99.38
1537.00,99.37
1536.00,99.37
1535.00,99.37
1534.00,99.37
1533.00,99.37
1532.00,99.37
1531.00,99.37
1530.00,99.38
1529.00,99.38
1528.00,99.38
1527.00,99.38
1526.00,99.38
1525.00,99.37
1524.00,99.36
1523.00,99.36
1522.00,99.36
1521.00,99.35
1520.00,99.33
1519.00,99.32
1518.00,99.32
1517.00,99.30
1516.00,99.28
1515.00,99.28
1514.00,99.27
1513.00,99.26
1512.00,99.25
1511.00,99.24
1510.00,99.24
1509.00,99.23
1508.00,99.21
1507.00,99.19
1506.00,99.17
1505.00,99.14
1504.00,99.11
1503.00,99.10
1502.00,99.08
1501.00,99.06
1500.00,99.03
1499.00,99.01
1498.00,98.98
1497.00,98.93
1496.00,98.88
1495.00,98.85
1494.00,98.82
1493.00,98.78
1492.00,98.73
1491.00,98.69
1490.00,98.63
1489.00,98.55
1488.00,98.45
1487.00,98.37
1486.00,98.28
1485.00,98.17
1484.00,98.05
1483.00,97.93
1482.00,97.78
1481.00,97.60
1480.00,97.39
1479.00,97.16
1478.00,96.86
1477.00,96.43
1476.00,95.87
1475.00,95.21
1474.00,94.42
1473.00,93.47
1472.00,92.50
1471.00,91.64
1470.00,90.81
1469.00,89.89
1468.00,88.87
1467.00,87.73
1466.00,86.40
1465.00,84.97
1464.00,83.75
1463.00,82.93
1462.00,82.44
1461.00,82.13
1460.00,81.95
1459.00,81.86
1458.00,81.78
1457.00,81.71
1456.00,81.69
1455.00,81.73
1454.00,81.79
1453.00,81.94
1452.00,82.24
1451.00,82.72
1450.00,83.44
1449.00,84.47
1448.00,85.81
1447.00,87.26
1446.00,88.59
1445.00,89.75
1444.00,90.77
1443.00,91.61
1442.00,92.24
1441.00,92.67
1440.00,92.92
1439.00,93.01
1438.00,92.99
1437.00,93.00
1436.00,93.19
1435.00,93.61
1434.00,94.20
1433.00,94.91
1432.00,95.65
1431.00,96.32
1430.00,96.84
1429.00,97.21
1428.00,97.47
1427.00,97.63
1426.00,97.73
1425.00,97.83
1424.00,97.91
1423.00,97.96
1422.00,97.98
1421.00,98.00
1420.00,98.02
1419.00,98.02
1418.00,98.03
1417.00,98.07
1416.00,98.13
1415.00,98.16
1414.00,98.18
1413.00,98.18
1412.00,98.17
1411.00,98.13
1410.00,98.12
1409.00,98.15
1408.00,98.20
1407.00,98.24
1406.00,98.26
1405.00,98.26
1404.00,98.25
1403.00,98.22
1402.00,98.17
1401.00,98.13
1400.00,98.10
1399.00,98.05
1398.00,97.99
1397.00,97.95
1396.00,97.92
1395.00,97.86
1394.00,97.78
1393.00,97.72
1392.00,97.66
1391.00,97.55
1390.00,97.40
1389.00,97.17
1388.00,96.80
1387.00,96.24
1386.00,95.47
1385.00,94.46
1384.00,93.09
1383.00,91.22
1382.00,88.79
1381.00,85.79
1380.00,82.31
1379.00,78.65
1378.00,75.46
1377.00,73.38
1376.00,72.91
1375.00,74.28
1374.00,77.17
1373.00,80.64
1372.00,83.89
1371.00,86.66
1370.00,88.98
1369.00,90.81
1368.00,92.11
1367.00,92.93
1366.00,93.38
1365.00,93.55
1364.00,93.49
1363.00,93.25
1362.00,92.89
1361.00,92.52
1360.00,92.25
1359.00,92.18
1358.00,92.36
1357.00,92.77
1356.00,93.36
1355.00,94.03
1354.00,94.69
1353.00,95.25
1352.00,95.72
1351.00,96.10
1350.00,96.42
1349.00,96.70
1348.00,96.94
1347.00,97.14
1346.00,97.33
1345.00,97.49
1344.00,97.63
1343.00,97.75
1342.00,97.84
1341.00,97.92
1340.00,97.99
1339.00,98.03
1338.00,98.05
1337.00,98.06
1336.00,98.05
1335.00,98.03
1334.00,97.99
1333.00,97.93
1332.00,97.87
1331.00,97.82
1330.00,97.81
1329.00,97.84
1328.00,97.91
1327.00,97.99
1326.00,98.09
1325.00,98.19
1324.00,98.29
1323.00,98.37
1322.00,98.43
1321.00,98.48
1320.00,98.52
1319.00,98.55
1318.00,98.58
1317.00,98.60
1316.00,98.62
1315.00,98.64
1314.00,98.64
1313.00,98.64
1312.00,98.61
1311.00,98.56
1310.00,98.48
1309.00,98.34
1308.00,98.15
1307.00,97.93
1306.00,97.71
1305.00,97.57
1304.00,97.54
1303.00,97.61
1302.00,97.72
1301.00,97.83
1300.00,97.89
1299.00,97.92
1298.00,97.92
1297.00,97.93
1296.00,97.95
1295.00,98.00
1294.00,98.07
1293.00,98.16
1292.00,98.25
1291.00,98.34
1290.00,98.42
1289.00,98.48
1288.00,98.53
1287.00,98.57
1286.00,98.61
1285.00,98.64
1284.00,98.66
1283.00,98.68
1282.00,98.70
1281.00,98.73
1280.00,98.75
1279.00,98.76
1278.00,98.77
1277.00,98.78
1276.00,98.79
1275.00,98.80
1274.00,98.80
1273.00,98.79
1272.00,98.79
1271.00,98.77
1270.00,98.75
1269.00,98.73
1268.00,98.70
1267.00,98.68
1266.00,98.65
1265.00,98.62
1264.00,98.58
1263.00,98.52
1262.00,98.44
1261.00,98.34
1260.00,98.20
1259.00,98.03
1258.00,97.87
1257.00,97.75
1256.00,97.70
1255.00,97.75
1254.00,97.88
1253.00,98.04
1252.00,98.20
1251.00,98.31
1250.00,98.36
1249.00,98.36
1248.00,98.31
1247.00,98.25
1246.00,98.16
1245.00,98.07
1244.00,97.96
1243.00,97.86
1242.00,97.79
1241.00,97.79
1240.00,97.87
1239.00,98.01
1238.00,98.18
1237.00,98.35
1236.00,98.50
1235.00,98.62
1234.00,98.72
1233.00,98.80
1232.00,98.87
1231.00,98.91
1230.00,98.94
1229.00,98.96
1228.00,98.97
1227.00,98.96
1226.00,98.95
1225.00,98.93
1224.00,98.90
1223.00,98.86
1222.00,98.82
1221.00,98.79
1220.00,98.77
1219.00,98.76
1218.00,98.77
1217.00,98.78
1216.00,98.81
1215.00,98.84
1214.00,98.87
1213.00,98.90
1212.00,98.93
1211.00,98.95
1210.00,98.97
1209.00,98.98
1208.00,98.99
1207.00,98.99
1206.00,98.99
1205.00,98.99
1204.00,98.99
1203.00,98.99
1202.00,98.98
1201.00,98.97
1200.00,98.97
1199.00,98.96
1198.00,98.94
1197.00,98.92
1196.00,98.90
1195.00,98.87
1194.00,98.82
1193.00,98.77
1192.00,98.72
1191.00,98.65
1190.00,98.56
1189.00,98.45
1188.00,98.31
1187.00,98.10
1186.00,97.82
1185.00,97.48
1184.00,97.10
1183.00,96.75
1182.00,96.47
1181.00,96.30
1180.00,96.22
1179.00,96.22
1178.00,96.25
1177.00,96.24
1176.00,96.15
1175.00,95.94
1174.00,95.60
1173.00,95.15
1172.00,94.62
1171.00,94.09
1170.00,93.63
1169.00,93.34
1168.00,93.26
1167.00,93.39
1166.00,93.70
1165.00,94.10
1164.00,94.52
1163.00,94.92
1162.00,95.28
1161.00,95.60
1160.00,95.86
1159.00,96.08
1158.00,96.26
1157.00,96.39
1156.00,96.49
1155.00,96.58
1154.00,96.65
1153.00,96.74
1152.00,96.85
1151.00,96.99
1150.00,97.15
1149.00,97.32
1148.00,97.50
1147.00,97.66
1146.00,97.83
1145.00,97.98
1144.00,98.11
1143.00,98.24
1142.00,98.36
1141.00,98.47
1140.00,98.57
1139.00,98.66
1138.00,98.74
1137.00,98.80
1136.00,98.85
1135.00,98.90
1134.00,98.95
1133.00,98.98
1132.00,99.01
1131.00,99.03
1130.00,99.05
1129.00,99.07
1128.00,99.10
1127.00,99.11
1126.00,99.12
1125.00,99.13
1124.00,99.13
1123.00,99.13
1122.00,99.13
1121.00,99.13
1120.00,99.13
1119.00,99.12
1118.00,99.11
1117.00,99.09
1116.00,99.07
1115.00,99.04
1114.00,99.01
1113.00,98.99
1112.00,98.97
1111.00,98.93
1110.00,98.87
1109.00,98.80
1108.00,98.71
1107.00,98.60
1106.00,98.49
1105.00,98.38
1104.00,98.30
1103.00,98.27
1102.00,98.28
1101.00,98.35
1100.00,98.45
1099.00,98.56
1098.00,98.67
1097.00,98.76
1096.00,98.83
1095.00,98.89
1094.00,98.93
1093.00,98.97
1092.00,98.99
1091.00,99.01
1090.00,99.02
1089.00,99.02
1088.00,99.03
1087.00,99.02
1086.00,99.01
1085.00,99.00
1084.00,99.01
1083.00,99.02
1082.00,99.03
1081.00,99.04
1080.00,99.06
1079.00,99.08
1078.00,99.09
1077.00,99.10
1076.00,99.11
1075.00,99.11
1074.00,99.11
1073.00,99.10
1072.00,99.10
1071.00,99.08
1070.00,99.05
1069.00,99.02
1068.00,98.99
1067.00,98.95
1066.00,98.92
1065.00,98.89
1064.00,98.86
1063.00,98.84
1062.00,98.81
1061.00,98.78
1060.00,98.76
1059.00,98.73
1058.00,98.71
1057.00,98.69
1056.00,98.68
1055.00,98.66
1054.00,98.62
1053.00,98.57
1052.00,98.49
1051.00,98.41
1050.00,98.32
1049.00,98.24
1048.00,98.15
1047.00,98.07
1046.00,98.00
1045.00,97.97
1044.00,97.98
1043.00,98.02
1042.00,98.08
1041.00,98.15
1040.00,98.20
1039.00,98.24
1038.00,98.26
1037.00,98.28
1036.00,98.30
1035.00,98.31
1034.00,98.32
1033.00,98.32
1032.00,98.32
1031.00,98.30
1030.00,98.27
1029.00,98.23
1028.00,98.19
1027.00,98.13
1026.00,98.07
1025.00,98.01
1024.00,97.95
1023.00,97.88
1022.00,97.80
1021.00,97.73
1020.00,97.67
1019.00,97.62
1018.00,97.59
1017.00,97.59
1016.00,97.60
1015.00,97.63
1014.00,97.65
1013.00,97.68
1012.00,97.69
1011.00,97.69
1010.00,97.68
1009.00,97.64
1008.00,97.57
1007.00,97.45
1006.00,97.28
1005.00,97.02
1004.00,96.65
1003.00,96.13
1002.00,95.45
1001.00,94.64
1000.00,93.81
999.00,93.15
998.00,92.88
997.00,93.07
996.00,93.68
995.00,94.52
994.00,95.40
993.00,96.16
992.00,96.75
991.00,97.19
990.00,97.50
989.00,97.71
988.00,97.85
987.00,97.92
986.00,97.93
985.00,97.90
984.00,97.81
983.00,97.65
982.00,97.41
981.00,97.06
980.00,96.59
979.00,95.96
978.00,95.19
977.00,94.30
976.00,93.38
975.00,92.56
974.00,92.01
973.00,91.90
972.00,92.30
971.00,93.13
970.00,94.18
969.00,95.21
968.00,96.08
967.00,96.74
966.00,97.23
965.00,97.58
964.00,97.83
963.00,98.02
962.00,98.17
961.00,98.30
960.00,98.40
959.00,98.49
958.00,98.56
957.00,98.62
956.00,98.66
955.00,98.70
954.00,98.74
953.00,98.78
952.00,98.82
951.00,98.85
950.00,98.87
949.00,98.88
948.00,98.88
947.00,98.87
946.00,98.85
945.00,98.81
944.00,98.75
943.00,98.68
942.00,98.61
941.00,98.57
940.00,98.57
939.00,98.62
938.00,98.70
937.00,98.79
936.00,98.86
935.00,98.92
934.00,98.97
933.00,99.01
932.00,99.05
931.00,99.09
930.00,99.12
929.00,99.15
928.00,99.16
927.00,99.17
926.00,99.18
925.00,99.19
924.00,99.20
923.00,99.21
922.00,99.22
921.00,99.23
920.00,99.23
919.00,99.23
918.00,99.23
917.00,99.23
916.00,99.22
915.00,99.19
914.00,99.15
913.00,99.12
912.00,99.09
911.00,99.07
910.00,99.05
909.00,99.01
908.00,98.95
907.00,98.85
906.00,98.69
905.00,98.48
904.00,98.20
903.00,97.86
902.00,97.51
901.00,97.21
900.00,97.03
899.00,97.02
898.00,97.19
897.00,97.48
896.00,97.83
895.00,98.16
894.00,98.42
893.00,98.61
892.00,98.73
891.00,98.81
890.00,98.87
889.00,98.93
888.00,98.98
887.00,99.02
886.00,99.05
885.00,99.07
884.00,99.07
883.00,99.08
882.00,99.08
881.00,99.09
880.00,99.10
879.00,99.10
878.00,99.10
877.00,99.10
876.00,99.10
875.00,99.09
874.00,99.07
873.00,99.05
872.00,99.04
871.00,99.03
870.00,99.02
869.00,99.00
868.00,98.99
867.00,98.97
866.00,98.95
865.00,98.93
864.00,98.91
863.00,98.88
862.00,98.86
861.00,98.83
860.00,98.80
859.00,98.76
858.00,98.72
857.00,98.69
856.00,98.65
855.00,98.61
854.00,98.57
853.00,98.52
852.00,98.46
851.00,98.38
850.00,98.28
849.00,98.14
848.00,97.93
847.00,97.61
846.00,97.10
845.00,96.32
844.00,95.28
843.00,94.15
842.00,93.33
841.00,93.19
840.00,93.79
839.00,94.88
838.00,96.00
837.00,96.87
836.00,97.43
835.00,97.77
834.00,97.98
833.00,98.13
832.00,98.24
831.00,98.32
830.00,98.39
829.00,98.45
828.00,98.51
827.00,98.56
826.00,98.59
825.00,98.62
824.00,98.63
823.00,98.63
822.00,98.62
821.00,98.60
820.00,98.57
819.00,98.52
818.00,98.44
817.00,98.32
816.00,98.14
815.00,97.90
814.00,97.60
813.00,97.24
812.00,96.88
811.00,96.57
810.00,96.36
809.00,96.30
808.00,96.42
807.00,96.68
806.00,97.03
805.00,97.39
804.00,97.69
803.00,97.92
802.00,98.09
801.00,98.22
800.00,98.32
799.00,98.40
798.00,98.45
797.00,98.49
796.00,98.53
795.00,98.58
794.00,98.64
793.00,98.69
792.00,98.73
791.00,98.75
790.00,98.77
789.00,98.79
788.00,98.82
787.00,98.87
786.00,98.93
785.00,98.99
784.00,99.05
783.00,99.12
782.00,99.17
781.00,99.22
780.00,99.26
779.00,99.28
778.00,99.29
777.00,99.30
776.00,99.30
775.00,99.30
774.00,99.30
773.00,99.29
772.00,99.29
771.00,99.30
770.00,99.31
769.00,99.32
768.00,99.33
767.00,99.32
766.00,99.32
765.00,99.32
764.00,99.33
763.00,99.35
762.00,99.36
761.00,99.37
760.00,99.37
759.00,99.37
758.00,99.36
757.00,99.34
756.00,99.33
755.00,99.32
754.00,99.32
753.00,99.32
752.00,99.32
751.00,99.32
750.00,99.33
749.00,99.32
748.00,99.31
747.00,99.29
746.00,99.27
745.00,99.26
744.00,99.26
743.00,99.24
742.00,99.21
741.00,99.17
740.00,99.12
739.00,99.06
738.00,99.00
737.00,98.92
736.00,98.83
735.00,98.71
734.00,98.54
733.00,98.33
732.00,98.12
731.00,97.96
730.00,97.90
729.00,97.94
728.00,98.04
727.00,98.13
726.00,98.16
725.00,98.12
724.00,98.01
723.00,97.84
722.00,97.63
721.00,97.45
720.00,97.40
719.00,97.55
718.00,97.84
717.00,98.18
716.00,98.48
715.00,98.69
714.00,98.84
713.00,98.96
712.00,99.04
711.00,99.12
710.00,99.17
709.00,99.21
708.00,99.23
707.00,99.23
706.00,99.24
705.00,99.26
704.00,99.29
703.00,99.31
702.00,99.34
701.00,99.36
700.00,99.38
699.00,99.39
698.00,99.37
697.00,99.34
696.00,99.33
695.00,99.32
694.00,99.32
693.00,99.32
692.00,99.33
691.00,99.35
690.00,99.36
689.00,99.37
688.00,99.37
687.00,99.37
686.00,99.37
685.00,99.38
684.00,99.39
683.00,99.39
682.00,99.38
681.00,99.37
680.00,99.35
679.00,99.33
678.00,99.30
677.00,99.25
676.00,99.20
675.00,99.15
674.00,99.12
673.00,99.09
672.00,99.06
671.00,99.04
670.00,99.01
669.00,99.02
668.00,99.09
667.00,99.17
666.00,99.23
665.00,99.29
664.00,99.34
663.00,99.37
662.00,99.38
661.00,99.40
660.00,99.43
659.00,99.46
658.00,99.46
657.00,99.44
656.00,99.45
655.00,99.49
654.00,99.53
653.00,99.54
652.00,99.52
651.00,99.50
650.00,99.48
