Created as New Dataset,PP granule 4mm GF
cm-1,%T
4000.00,99.89
3999.00,99.89
3998.00,99.89
3997.00,99.89
3996.00,99.90
3995.00,99.90
3994.00,99.90
3993.00,99.90
3992.00,99.90
3991.00,99.89
3990.00,99.89
3989.00,99.89
3988.00,99.89
3987.00,99.89
3986.00,99.89
3985.00,99.89
3984.00,99.89
3983.00,99.89
3982.00,99.89
3981.00,99.90
3980.00,99.90
3979.00,99.90
3978.00,99.90
3977.00,99.90
3976.00,99.90
3975.00,99.90
3974.00,99.90
3973.00,99.90
3972.00,99.90
3971.00,99.90
3970.00,99.90
3969.00,99.90
3968.00,99.89
3967.00,99.90
3966.00,99.90
3965.00,99.90
3964.00,99.90
3963.00,99.89
3962.00,99.89
3961.00,99.89
3960.00,99.89
3959.00,99.89
3958.00,99.89
3957.00,99.89
3956.00,99.89
3955.00,99.89
3954.00,99.89
3953.00,99.89
3952.00,99.89
3951.00,99.89
3950.00,99.89
3949.00,99.89
3948.00,99.89
3947.00,99.89
3946.00,99.89
3945.00,99.89
3944.00,99.89
3943.00,99.89
3942.00,99.89
3941.00,99.89
3940.00,99.89
3939.00,99.89
3938.00,99.89
3937.00,99.89
3936.00,99.89
3935.00,99.89
3934.00,99.88
3933.00,99.88
3932.00,99.88
3931.00,99.88
3930.00,99.88
3929.00,99.89
3928.00,99.89
3927.00,99.89
3926.00,99.89
3925.00,99.89
3924.00,99.89
3923.00,99.88
3922.00,99.88
3921.00,99.88
3920.00,99.88
3919.00,99.88
3918.00,99.88
3917.00,99.88
3916.00,99.88
3915.00,99.88
3914.00,99.88
3913.00,99.88
3912.00,99.88
3911.00,99.88
3910.00,99.88
3909.00,99.88
3908.00,99.88
3907.00,99.88
3906.00,99.88
3905.00,99.87
3904.00,99.87
3903.00,99.87
3902.00,99.87
3901.00,99.88
3900.00,99.88
3899.00,99.88
3898.00,99.89
3897.00,99.89
3896.00,99.89
3895.00,99.89
3894.00,99.88
3893.00,99.88
3892.00,99.88
3891.00,99.88
3890.00,99.88
3889.00,99.88
3888.00,99.88
3887.00,99.87
3886.00,99.87
3885.00,99.87
3884.00,99.87
3883.00,99.87
3882.00,99.87
3881.00,99.87
3880.00,99.87
3879.00,99.88
3878.00,99.88
3877.00,99.88
3876.00,99.88
3875.00,99.87
3874.00,99.87
3873.00,99.87
3872.00,99.88
3871.00,99.88
3870.00,99.88
3869.00,99.88
3868.00,99.87
3867.00,99.87
3866.00,99.87
3865.00,99.87
3864.00,99.87
3863.00,99.87
3862.00,99.87
3861.00,99.87
3860.00,99.87
3859.00,99.87
3858.00,99.87
3857.00,99.87
3856.00,99.87
3855.00,99.88
3854.00,99.88
3853.00,99.87
3852.00,99.87
3851.00,99.87
3850.00,99.87
3849.00,99.87
3848.00,99.87
3847.00,99.87
3846.00,99.87
3845.00,99.86
3844.00,99.87
3843.00,99.87
3842.00,99.87
3841.00,99.88
3840.00,99.88
3839.00,99.88
3838.00,99.87
3837.00,99.87
3836.00,99.86
3835.00,99.86
3834.00,99.86
3833.00,99.86
3832.00,99.86
3831.00,99.86
3830.00,99.86
3829.00,99.86
3828.00,99.86
3827.00,99.86
3826.00,99.86
3825.00,99.86
3824.00,99.86
3823.00,99.86
3822.00,99.86
3821.00,99.86
3820.00,99.86
3819.00,99.86
3818.00,99.86
3817.00,99.86
3816.00,99.86
3815.00,99.86
3814.00,99.86
3813.00,99.86
3812.00,99.86
3811.00,99.86
3810.00,99.86
3809.00,99.86
3808.00,99.86
3807.00,99.85
3806.00,99.85
3805.00,99.86
3804.00,99.86
3803.00,99.85
3802.00,99.85
3801.00,99.85
3800.00,99.86
3799.00,99.86
3798.00,99.86
3797.00,99.86
3796.00,99.85
3795.00,99.85
3794.00,99.85
3793.00,99.85
3792.00,99.85
3791.00,99.85
3790.00,99.85
3789.00,99.85
3788.00,99.85
3787.00,99.85
3786.00,99.85
3785.00,99.85
3784.00,99.85
3783.00,99.85
3782.00,99.84
3781.00,99.84
3780.00,99.84
3779.00,99.84
3778.00,99.85
3777.00,99.85
3776.00,99.85
3775.00,99.85
3774.00,99.84
3773.00,99.84
3772.00,99.84
3771.00,99.84
3770.00,99.84
3769.00,99.84
3768.00,99.84
3767.00,99.84
3766.00,99.84
3765.00,99.85
3764.00,99.85
3763.00,99.84
3762.00,99.84
3761.00,99.84
3760.00,99.84
3759.00,99.84
3758.00,99.84
3757.00,99.84
3756.00,99.84
3755.00,99.84
3754.00,99.84
3753.00,99.84
3752.00,99.84
3751.00,99.84
3750.00,99.83
3749.00,99.83
3748.00,99.83
3747.00,99.83
3746.00,99.83
3745.00,99.83
3744.00,99.84
3743.00,99.84
3742.00,99.84
3741.00,99.84
3740.00,99.83
3739.00,99.83
3738.00,99.83
3737.00,99.83
3736.00,99.83
3735.00,99.84
3734.00,99.84
3733.00,99.84
3732.00,99.84
3731.00,99.85
3730.00,99.85
3729.00,99.85
3728.00,99.85
3727.00,99.85
3726.00,99.84
3725.00,99.84
3724.00,99.84
3723.00,99.84
3722.00,99.84
3721.00,99.84
3720.00,99.84
3719.00,99.84
3718.00,99.84
3717.00,99.84
3716.00,99.84
3715.00,99.84
3714.00,99.84
3713.00,99.84
3712.00,99.85
3711.00,99.85
3710.00,99.85
3709.00,99.85
3708.00,99.85
3707.00,99.85
3706.00,99.85
3705.00,99.85
3704.00,99.86
3703.00,99.86
3702.00,99.86
3701.00,99.86
3700.00,99.86
3699.00,99.86
3698.00,99.85
3697.00,99.85
3696.00,99.85
3695.00,99.85
3694.00,99.84
3693.00,99.84
3692.00,99.84
3691.00,99.85
3690.00,99.86
3689.00,99.86
3688.00,99.86
3687.00,99.86
3686.00,99.85
3685.00,99.85
3684.00,99.85
3683.00,99.85
3682.00,99.84
3681.00,99.84
3680.00,99.84
3679.00,99.84
3678.00,99.84
3677.00,99.84
3676.00,99.84
3675.00,99.84
3674.00,99.84
3673.00,99.85
3672.00,99.85
3671.00,99.85
3670.00,99.85
3669.00,99.86
3668.00,99.86
3667.00,99.85
3666.00,99.85
3665.00,99.85
3664.00,99.84
3663.00,99.84
3662.00,99.84
3661.00,99.84
3660.00,99.84
3659.00,99.84
3658.00,99.84
3657.00,99.84
3656.00,99.85
3655.00,99.85
3654.00,99.85
3653.00,99.85
3652.00,99.85
3651.00,99.85
3650.00,99.85
3649.00,99.85
3648.00,99.85
3647.00,99.85
3646.00,99.85
3645.00,99.85
3644.00,99.85
3643.00,99.85
3642.00,99.85
3641.00,99.85
3640.00,99.85
3639.00,99.85
3638.00,99.85
3637.00,99.85
3636.00,99.86
3635.00,99.86
3634.00,99.86
3633.00,99.86
3632.00,99.87
3631.00,99.87
3630.00,99.87
3629.00,99.87
3628.00,99.87
3627.00,99.87
3626.00,99.87
3625.00,99.86
3624.00,99.86
3623.00,99.86
3622.00,99.85
3621.00,99.85
3620.00,99.85
3619.00,99.85
3618.00,99.85
3617.00,99.85
3616.00,99.85
3615.00,99.86
3614.00,99.86
3613.00,99.86
3612.00,99.86
3611.00,99.86
3610.00,99.85
3609.00,99.85
3608.00,99.85
3607.00,99.86
3606.00,99.86
3605.00,99.85
3604.00,99.85
3603.00,99.86
3602.00,99.86
3601.00,99.86
3600.00,99.87
3599.00,99.87
3598.00,99.87
3597.00,99.87
3596.00,99.86
3595.00,99.86
3594.00,99.86
3593.00,99.86
3592.00,99.86
3591.00,99.85
3590.00,99.85
3589.00,99.86
3588.00,99.86
3587.00,99.86
3586.00,99.86
3585.00,99.86
3584.00,99.86
3583.00,99.86
3582.00,99.86
3581.00,99.86
3580.00,99.86
3579.00,99.87
3578.00,99.86
3577.00,99.86
3576.00,99.87
3575.00,99.87
3574.00,99.87
3573.00,99.87
3572.00,99.87
3571.00,99.87
3570.00,99.86
3569.00,99.86
3568.00,99.86
3567.00,99.86
3566.00,99.86
3565.00,99.86
3564.00,99.85
3563.00,99.86
3562.00,99.86
3561.00,99.86
3560.00,99.86
3559.00,99.85
3558.00,99.85
3557.00,99.85
3556.00,99.85
3555.00,99.85
3554.00,99.85
3553.00,99.85
3552.00,99.85
3551.00,99.86
3550.00,99.86
3549.00,99.86
3548.00,99.86
3547.00,99.85
3546.00,99.85
3545.00,99.85
3544.00,99.85
3543.00,99.85
3542.00,99.86
3541.00,99.86
3540.00,99.86
3539.00,99.86
3538.00,99.86
3537.00,99.85
3536.00,99.85
3535.00,99.85
3534.00,99.85
3533.00,99.84
3532.00,99.84
3531.00,99.84
3530.00,99.84
3529.00,99.85
3528.00,99.85
3527.00,99.85
3526.00,99.84
3525.00,99.84
3524.00,99.84
3523.00,99.85
3522.00,99.85
3521.00,99.85
3520.00,99.85
3519.00,99.84
3518.00,99.84
3517.00,99.84
3516.00,99.85
3515.00,99.85
3514.00,99.85
3513.00,99.85
3512.00,99.85
3511.00,99.85
3510.00,99.85
3509.00,99.85
3508.00,99.85
3507.00,99.85
3506.00,99.85
3505.00,99.85
3504.00,99.85
3503.00,99.85
3502.00,99.85
3501.00,99.85
3500.00,99.85
3499.00,99.84
3498.00,99.84
3497.00,99.84
3496.00,99.84
3495.00,99.84
3494.00,99.84
3493.00,99.84
3492.00,99.85
3491.00,99.85
3490.00,99.85
3489.00,99.84
3488.00,99.84
3487.00,99.84
3486.00,99.84
3485.00,99.85
3484.00,99.85
3483.00,99.84
3482.00,99.84
3481.00,99.84
3480.00,99.84
3479.00,99.84
3478.00,99.85
3477.00,99.85
3476.00,99.85
3475.00,99.85
3474.00,99.85
3473.00,99.85
3472.00,99.85
3471.00,99.85
3470.00,99.84
3469.00,99.84
3468.00,99.84
3467.00,99.84
3466.00,99.84
3465.00,99.84
3464.00,99.83
3463.00,99.83
3462.00,99.84
3461.00,99.84
3460.00,99.84
3459.00,99.84
3458.00,99.84
3457.00,99.84
3456.00,99.84
3455.00,99.84
3454.00,99.84
3453.00,99.84
3452.00,99.84
3451.00,99.84
3450.00,99.84
3449.00,99.83
3448.00,99.83
3447.00,99.83
3446.00,99.83
3445.00,99.83
3444.00,99.83
3443.00,99.83
3442.00,99.83
3441.00,99.84
3440.00,99.84
3439.00,99.84
3438.00,99.85
3437.00,99.85
3436.00,99.85
3435.00,99.85
3434.00,99.85
3433.00,99.85
3432.00,99.85
3431.00,99.85
3430.00,99.85
3429.00,99.84
3428.00,99.84
3427.00,99.84
3426.00,99.84
3425.00,99.84
3424.00,99.84
3423.00,99.85
3422.00,99.85
3421.00,99.85
3420.00,99.84
3419.00,99.84
3418.00,99.84
3417.00,99.84
3416.00,99.84
3415.00,99.84
3414.00,99.84
3413.00,99.84
3412.00,99.84
3411.00,99.84
3410.00,99.84
3409.00,99.84
3408.00,99.84
3407.00,99.84
3406.00,99.84
3405.00,99.84
3404.00,99.84
3403.00,99.85
3402.00,99.85
3401.00,99.84
3400.00,99.84
3399.00,99.84
3398.00,99.84
3397.00,99.84
3396.00,99.85
3395.00,99.84
3394.00,99.84
3393.00,99.84
3392.00,99.84
3391.00,99.84
3390.00,99.84
3389.00,99.84
3388.00,99.84
3387.00,99.85
3386.00,99.85
3385.00,99.85
3384.00,99.85
3383.00,99.85
3382.00,99.85
3381.00,99.84
3380.00,99.84
3379.00,99.84
3378.00,99.84
3377.00,99.84
3376.00,99.84
3375.00,99.84
3374.00,99.84
3373.00,99.84
3372.00,99.84
3371.00,99.84
3370.00,99.85
3369.00,99.84
3368.00,99.84
3367.00,99.84
3366.00,99.84
3365.00,99.84
3364.00,99.84
3363.00,99.84
3362.00,99.85
3361.00,99.85
3360.00,99.85
3359.00,99.85
3358.00,99.84
3357.00,99.84
3356.00,99.84
3355.00,99.84
3354.00,99.84
3353.00,99.84
3352.00,99.84
3351.00,99.84
3350.00,99.84
3349.00,99.84
3348.00,99.84
3347.00,99.83
3346.00,99.84
3345.00,99.84
3344.00,99.84
3343.00,99.84
3342.00,99.84
3341.00,99.84
3340.00,99.84
3339.00,99.84
3338.00,99.84
3337.00,99.84
3336.00,99.85
3335.00,99.85
3334.00,99.85
3333.00,99.84
3332.00,99.84
3331.00,99.84
3330.00,99.84
3329.00,99.84
3328.00,99.84
3327.00,99.84
3326.00,99.84
3325.00,99.84
3324.00,99.85
3323.00,99.85
3322.00,99.85
3321.00,99.85
3320.00,99.85
3319.00,99.85
3318.00,99.85
3317.00,99.85
3316.00,99.85
3315.00,99.85
3314.00,99.85
3313.00,99.85
3312.00,99.85
3311.00,99.85
3310.00,99.85
3309.00,99.85
3308.00,99.85
3307.00,99.85
3306.00,99.85
3305.00,99.85
3304.00,99.85
3303.00,99.84
3302.00,99.84
3301.00,99.84
3300.00,99.84
3299.00,99.84
3298.00,99.84
3297.00,99.84
3296.00,99.85
3295.00,99.85
3294.00,99.85
3293.00,99.85
3292.00,99.84
3291.00,99.84
3290.00,99.84
3289.00,99.84
3288.00,99.84
3287.00,99.84
3286.00,99.84
3285.00,99.84
3284.00,99.84
3283.00,99.84
3282.00,99.84
3281.00,99.84
3280.00,99.84
3279.00,99.85
3278.00,99.85
3277.00,99.85
3276.00,99.84
3275.00,99.84
3274.00,99.84
3273.00,99.84
3272.00,99.84
3271.00,99.84
3270.00,99.84
3269.00,99.85
3268.00,99.85
3267.00,99.85
3266.00,99.85
3265.00,99.84
3264.00,99.84
3263.00,99.85
3262.00,99.85
3261.00,99.85
3260.00,99.85
3259.00,99.85
3258.00,99.84
3257.00,99.84
3256.00,99.84
3255.00,99.84
3254.00,99.84
3253.00,99.84
3252.00,99.84
3251.00,99.85
3250.00,99.85
3249.00,99.85
3248.00,99.84
3247.00,99.84
3246.00,99.84
3245.00,99.84
3244.00,99.84
3243.00,99.84
3242.00,99.84
3241.00,99.84
3240.00,99.83
3239.00,99.83
3238.00,99.84
3237.00,99.84
3236.00,99.84
3235.00,99.84
3234.00,99.85
3233.00,99.84
3232.00,99.84
3231.00,99.84
3230.00,99.84
3229.00,99.84
3228.00,99.84
3227.00,99.84
3226.00,99.84
3225.00,99.84
3224.00,99.84
3223.00,99.84
3222.00,99.84
3221.00,99.83
3220.00,99.83
3219.00,99.83
3218.00,99.83
3217.00,99.83
3216.00,99.83
3215.00,99.83
3214.00,99.83
3213.00,99.83
3212.00,99.82
3211.00,99.82
3210.00,99.81
3209.00,99.81
3208.00,99.81
3207.00,99.82
3206.00,99.82
3205.00,99.82
3204.00,99.82
3203.00,99.82
3202.00,99.82
3201.00,99.82
3200.00,99.82
3199.00,99.82
3198.00,99.82
3197.00,99.82
3196.00,99.82
3195.00,99.82
3194.00,99.82
3193.00,99.81
3192.00,99.81
3191.00,99.81
3190.00,99.81
3189.00,99.82
3188.00,99.82
3187.00,99.82
3186.00,99.82
3185.00,99.82
3184.00,99.82
3183.00,99.82
3182.00,99.82
3181.00,99.82
3180.00,99.82
3179.00,99.82
3178.00,99.82
3177.00,99.82
3176.00,99.82
3175.00,99.83
3174.00,99.83
3173.00,99.83
3172.00,99.83
3171.00,99.83
3170.00,99.82
3169.00,99.82
3168.00,99.82
3167.00,99.82
3166.00,99.82
3165.00,99.82
3164.00,99.82
3163.00,99.83
3162.00,99.83
3161.00,99.83
3160.00,99.83
3159.00,99.83
3158.00,99.83
3157.00,99.83
3156.00,99.83
3155.00,99.83
3154.00,99.83
3153.00,99.82
3152.00,99.82
3151.00,99.82
3150.00,99.82
3149.00,99.81
3148.00,99.82
3147.00,99.82
3146.00,99.82
3145.00,99.82
3144.00,99.82
3143.00,99.82
3142.00,99.82
3141.00,99.82
3140.00,99.82
3139.00,99.82
3138.00,99.82
3137.00,99.82
3136.00,99.82
3135.00,99.82
3134.00,99.83
3133.00,99.83
3132.00,99.83
3131.00,99.83
3130.00,99.83
3129.00,99.82
3128.00,99.82
3127.00,99.82
3126.00,99.82
3125.00,99.83
3124.00,99.83
3123.00,99.83
3122.00,99.83
3121.00,99.83
3120.00,99.83
3119.00,99.83
3118.00,99.83
3117.00,99.83
3116.00,99.83
3115.00,99.83
3114.00,99.83
3113.00,99.83
3112.00,99.82
3111.00,99.82
3110.00,99.82
3109.00,99.82
3108.00,99.82
3107.00,99.83
3106.00,99.83
3105.00,99.83
3104.00,99.83
3103.00,99.83
3102.00,99.83
3101.00,99.83
3100.00,99.82
3099.00,99.82
3098.00,99.82
3097.00,99.82
3096.00,99.83
3095.00,99.83
3094.00,99.83
3093.00,99.83
3092.00,99.84
3091.00,99.84
3090.00,99.84
3089.00,99.83
3088.00,99.83
3087.00,99.83
3086.00,99.83
3085.00,99.83
3084.00,99.83
3083.00,99.82
3082.00,99.83
3081.00,99.83
3080.00,99.83
3079.00,99.83
3078.00,99.83
3077.00,99.83
3076.00,99.83
3075.00,99.82
3074.00,99.82
3073.00,99.82
3072.00,99.82
3071.00,99.82
3070.00,99.82
3069.00,99.82
3068.00,99.82
3067.00,99.82
3066.00,99.83
3065.00,99.83
3064.00,99.83
3063.00,99.83
3062.00,99.82
3061.00,99.82
3060.00,99.82
3059.00,99.81
3058.00,99.81
3057.00,99.81
3056.00,99.81
3055.00,99.81
3054.00,99.82
3053.00,99.82
3052.00,99.82
3051.00,99.81
3050.00,99.81
3049.00,99.81
3048.00,99.81
3047.00,99.81
3046.00,99.81
3045.00,99.81
3044.00,99.81
3043.00,99.81
3042.00,99.81
3041.00,99.81
3040.00,99.81
3039.00,99.81
3038.00,99.81
3037.00,99.81
3036.00,99.81
3035.00,99.80
3034.00,99.80
3033.00,99.80
3032.00,99.80
3031.00,99.80
3030.00,99.79
3029.00,99.79
3028.00,99.79
3027.00,99.79
3026.00,99.79
3025.00,99.79
3024.00,99.79
3023.00,99.78
3022.00,99.78
3021.00,99.78
3020.00,99.78
3019.00,99.77
3018.00,99.77
3017.00,99.76
3016.00,99.76
3015.00,99.76
3014.00,99.75
3013.00,99.75
3012.00,99.74
3011.00,99.74
3010.00,99.74
3009.00,99.73
3008.00,99.72
3007.00,99.72
3006.00,99.71
3005.00,99.71
3004.00,99.70
3003.00,99.69
3002.00,99.68
3001.00,99.66
3000.00,99.65
2999.00,99.64
2998.00,99.63
2997.00,99.62
2996.00,99.60
2995.00,99.58
2994.00,99.56
2993.00,99.54
2992.00,99.52
2991.00,99.50
2990.00,99.47
2989.00,99.45
2988.00,99.42
2987.00,99.38
2986.00,99.34
2985.00,99.29
2984.00,99.24
2983.00,99.18
2982.00,99.11
2981.00,99.04
2980.00,98.96
2979.00,98.87
2978.00,98.77
2977.00,98.66
2976.00,98.53
2975.00,98.39
2974.00,98.22
2973.00,98.04
2972.00,97.83
2971.00,97.61
2970.00,97.36
2969.00,97.10
2968.00,96.81
2967.00,96.52
2966.00,96.21
2965.00,95.90
2964.00,95.61
2963.00,95.33
2962.00,95.09
2961.00,94.88
2960.00,94.72
2959.00,94.59
2958.00,94.48
2957.00,94.39
2956.00,94.31
2955.00,94.22
2954.00,94.14
2953.00,94.06
2952.00,94.02
2951.00,94.01
2950.00,94.08
2949.00,94.22
2948.00,94.44
2947.00,94.72
2946.00,95.05
2945.00,95.40
2944.00,95.74
2943.00,96.05
2942.00,96.29
2941.00,96.47
2940.00,96.57
2939.00,96.60
2938.00,96.57
2937.00,96.49
2936.00,96.36
2935.00,96.18
2934.00,95.96
2933.00,95.72
2932.00,95.45
2931.00,95.16
2930.00,94.87
2929.00,94.56
2928.00,94.26
2927.00,93.96
2926.00,93.66
2925.00,93.36
2924.00,93.07
2923.00,92.77
2922.00,92.49
2921.00,92.23
2920.00,92.01
2919.00,91.87
2918.00,91.83
2917.00,91.89
2916.00,92.05
2915.00,92.29
2914.00,92.56
2913.00,92.84
2912.00,93.11
2911.00,93.35
2910.00,93.56
2909.00,93.75
2908.00,93.92
2907.00,94.09
2906.00,94.25
2905.00,94.42
2904.00,94.60
2903.00,94.78
2902.00,94.96
2901.00,95.14
2900.00,95.32
2899.00,95.49
2898.00,95.64
2897.00,95.79
2896.00,95.92
2895.00,96.03
2894.00,96.12
2893.00,96.19
2892.00,96.25
2891.00,96.30
2890.00,96.33
2889.00,96.35
2888.00,96.37
2887.00,96.38
2886.00,96.38
2885.00,96.37
2884.00,96.35
2883.00,96.31
2882.00,96.27
2881.00,96.21
2880.00,96.16
2879.00,96.13
2878.00,96.10
2877.00,96.10
2876.00,96.11
2875.00,96.12
2874.00,96.13
2873.00,96.13
2872.00,96.11
2871.00,96.07
2870.00,96.03
2869.00,96.00
2868.00,95.99
2867.00,96.03
2866.00,96.12
2865.00,96.28
2864.00,96.50
2863.00,96.75
2862.00,97.00
2861.00,97.22
2860.00,97.41
2859.00,97.53
2858.00,97.60
2857.00,97.61
2856.00,97.56
2855.00,97.44
2854.00,97.25
2853.00,97.02
2852.00,96.79
2851.00,96.59
2850.00,96.49
2849.00,96.47
2848.00,96.52
2847.00,96.59
2846.00,96.63
2845.00,96.61
2844.00,96.52
2843.00,96.39
2842.00,96.25
2841.00,96.11
2840.00,96.00
2839.00,95.95
2838.00,95.97
2837.00,96.07
2836.00,96.25
2835.00,96.50
2834.00,96.80
2833.00,97.12
2832.00,97.43
2831.00,97.71
2830.00,97.95
2829.00,98.15
2828.00,98.32
2827.00,98.45
2826.00,98.56
2825.00,98.65
2824.00,98.73
2823.00,98.80
2822.00,98.85
2821.00,98.90
2820.00,98.95
2819.00,98.98
2818.00,99.02
2817.00,99.05
2816.00,99.07
2815.00,99.10
2814.00,99.12
2813.00,99.14
2812.00,99.16
2811.00,99.17
2810.00,99.19
2809.00,99.21
2808.00,99.23
2807.00,99.25
2806.00,99.27
2805.00,99.29
2804.00,99.32
2803.00,99.34
2802.00,99.36
2801.00,99.37
2800.00,99.39
2799.00,99.40
2798.00,99.40
2797.00,99.41
2796.00,99.42
2795.00,99.43
2794.00,99.44
2793.00,99.44
2792.00,99.45
2791.00,99.47
2790.00,99.48
2789.00,99.49
2788.00,99.51
2787.00,99.52
2786.00,99.53
2785.00,99.54
2784.00,99.55
2783.00,99.56
2782.00,99.57
2781.00,99.57
2780.00,99.58
2779.00,99.59
2778.00,99.60
2777.00,99.60
2776.00,99.61
2775.00,99.61
2774.00,99.61
2773.00,99.61
2772.00,99.62
2771.00,99.62
2770.00,99.62
2769.00,99.62
2768.00,99.62
2767.00,99.62
2766.00,99.62
2765.00,99.63
2764.00,99.63
2763.00,99.63
2762.00,99.63
2761.00,99.63
2760.00,99.64
2759.00,99.64
2758.00,99.64
2757.00,99.65
2756.00,99.65
2755.00,99.65
2754.00,99.65
2753.00,99.65
2752.00,99.65
2751.00,99.65
2750.00,99.65
2749.00,99.65
2748.00,99.65
2747.00,99.65
2746.00,99.64
2745.00,99.64
2744.00,99.64
2743.00,99.64
2742.00,99.64
2741.00,99.63
2740.00,99.63
2739.00,99.62
2738.00,99.62
2737.00,99.61
2736.00,99.61
2735.00,99.61
2734.00,99.60
2733.00,99.60
2732.00,99.59
2731.00,99.58
2730.00,99.57
2729.00,99.57
2728.00,99.56
2727.00,99.55
2726.00,99.54
2725.00,99.53
2724.00,99.53
2723.00,99.53
2722.00,99.54
2721.00,99.54
2720.00,99.55
2719.00,99.56
2718.00,99.57
2717.00,99.58
2716.00,99.59
2715.00,99.60
2714.00,99.61
2713.00,99.62
2712.00,99.62
2711.00,99.63
2710.00,99.63
2709.00,99.64
2708.00,99.64
2707.00,99.65
2706.00,99.66
2705.00,99.66
2704.00,99.67
2703.00,99.67
2702.00,99.67
2701.00,99.67
2700.00,99.67
2699.00,99.68
2698.00,99.68
2697.00,99.68
2696.00,99.68
2695.00,99.68
2694.00,99.68
2693.00,99.68
2692.00,99.68
2691.00,99.68
2690.00,99.68
2689.00,99.68
2688.00,99.68
2687.00,99.68
2686.00,99.68
2685.00,99.68
2684.00,99.68
2683.00,99.68
2682.00,99.68
2681.00,99.68
2680.00,99.68
2679.00,99.68
2678.00,99.68
2677.00,99.68
2676.00,99.68
2675.00,99.68
2674.00,99.68
2673.00,99.68
2672.00,99.68
2671.00,99.68
2670.00,99.68
2669.00,99.68
2668.00,99.68
2667.00,99.68
2666.00,99.68
2665.00,99.68
2664.00,99.67
2663.00,99.66
2662.00,99.66
2661.00,99.65
2660.00,99.64
2659.00,99.64
2658.00,99.63
2657.00,99.63
2656.00,99.63
2655.00,99.63
2654.00,99.63
2653.00,99.63
2652.00,99.63
2651.00,99.63
2650.00,99.63
2649.00,99.63
2648.00,99.63
2647.00,99.63
2646.00,99.63
2645.00,99.62
2644.00,99.62
2643.00,99.63
2642.00,99.63
2641.00,99.63
2640.00,99.63
2639.00,99.63
2638.00,99.63
2637.00,99.63
2636.00,99.63
2635.00,99.63
2634.00,99.64
2633.00,99.64
2632.00,99.64
2631.00,99.63
2630.00,99.63
2629.00,99.63
2628.00,99.63
2627.00,99.63
2626.00,99.63
2625.00,99.63
2624.00,99.63
2623.00,99.63
2622.00,99.64
2621.00,99.63
2620.00,99.63
2619.00,99.63
2618.00,99.63
2617.00,99.63
2616.00,99.63
2615.00,99.63
2614.00,99.63
2613.00,99.63
2612.00,99.63
2611.00,99.64
2610.00,99.64
2609.00,99.64
2608.00,99.64
2607.00,99.65
2606.00,99.66
2605.00,99.66
2604.00,99.67
2603.00,99.67
2602.00,99.67
2601.00,99.68
2600.00,99.68
2599.00,99.67
2598.00,99.67
2597.00,99.67
2596.00,99.67
2595.00,99.67
2594.00,99.67
2593.00,99.67
2592.00,99.67
2591.00,99.66
2590.00,99.66
2589.00,99.66
2588.00,99.65
2587.00,99.65
2586.00,99.65
2585.00,99.65
2584.00,99.65
2583.00,99.65
2582.00,99.65
2581.00,99.64
2580.00,99.64
2579.00,99.65
2578.00,99.65
2577.00,99.66
2576.00,99.67
2575.00,99.67
2574.00,99.67
2573.00,99.67
2572.00,99.68
2571.00,99.68
2570.00,99.68
2569.00,99.69
2568.00,99.69
2567.00,99.70
2566.00,99.70
2565.00,99.70
2564.00,99.70
2563.00,99.71
2562.00,99.71
2561.00,99.71
2560.00,99.71
2559.00,99.71
2558.00,99.72
2557.00,99.72
2556.00,99.72
2555.00,99.72
2554.00,99.72
2553.00,99.72
2552.00,99.72
2551.00,99.72
2550.00,99.72
2549.00,99.72
2548.00,99.73
2547.00,99.73
2546.00,99.73
2545.00,99.74
2544.00,99.74
2543.00,99.75
2542.00,99.75
2541.00,99.75
2540.00,99.74
2539.00,99.74
2538.00,99.74
2537.00,99.74
2536.00,99.74
2535.00,99.75
2534.00,99.75
2533.00,99.75
2532.00,99.74
2531.00,99.74
2530.00,99.74
2529.00,99.74
2528.00,99.75
2527.00,99.75
2526.00,99.76
2525.00,99.76
2524.00,99.76
2523.00,99.76
2522.00,99.76
2521.00,99.76
2520.00,99.76
2519.00,99.76
2518.00,99.76
2517.00,99.76
2516.00,99.76
2515.00,99.76
2514.00,99.76
2513.00,99.76
2512.00,99.77
2511.00,99.77
2510.00,99.77
2509.00,99.78
2508.00,99.78
2507.00,99.78
2506.00,99.78
2505.00,99.78
2504.00,99.77
2503.00,99.77
2502.00,99.77
2501.00,99.77
2500.00,99.77
2499.00,99.78
2498.00,99.78
2497.00,99.78
2496.00,99.78
2495.00,99.78
2494.00,99.78
2493.00,99.78
2492.00,99.77
2491.00,99.77
2490.00,99.78
2489.00,99.78
2488.00,99.78
2487.00,99.78
2486.00,99.78
2485.00,99.78
2484.00,99.78
2483.00,99.77
2482.00,99.77
2481.00,99.77
2480.00,99.77
2479.00,99.78
2478.00,99.78
2477.00,99.78
2476.00,99.78
2475.00,99.79
2474.00,99.79
2473.00,99.79
2472.00,99.79
2471.00,99.79
2470.00,99.79
2469.00,99.79
2468.00,99.79
2467.00,99.78
2466.00,99.78
2465.00,99.78
2464.00,99.78
2463.00,99.78
2462.00,99.78
2461.00,99.78
2460.00,99.78
2459.00,99.77
2458.00,99.77
2457.00,99.76
2456.00,99.76
2455.00,99.75
2454.00,99.75
2453.00,99.75
2452.00,99.75
2451.00,99.75
2450.00,99.75
2449.00,99.76
2448.00,99.76
2447.00,99.76
2446.00,99.77
2445.00,99.77
2444.00,99.77
2443.00,99.77
2442.00,99.77
2441.00,99.77
2440.00,99.77
2439.00,99.77
2438.00,99.77
2437.00,99.77
2436.00,99.77
2435.00,99.77
2434.00,99.77
2433.00,99.77
2432.00,99.78
2431.00,99.78
2430.00,99.79
2429.00,99.79
2428.00,99.79
2427.00,99.79
2426.00,99.79
2425.00,99.79
2424.00,99.79
2423.00,99.78
2422.00,99.78
2421.00,99.78
2420.00,99.78
2419.00,99.78
2418.00,99.78
2417.00,99.78
2416.00,99.78
2415.00,99.79
2414.00,99.79
2413.00,99.79
2412.00,99.79
2411.00,99.79
2410.00,99.79
2409.00,99.79
2408.00,99.79
2407.00,99.80
2406.00,99.81
2405.00,99.81
2404.00,99.81
2403.00,99.81
2402.00,99.81
2401.00,99.81
2400.00,99.81
2399.00,99.81
2398.00,99.82
2397.00,99.82
2396.00,99.82
2395.00,99.82
2394.00,99.82
2393.00,99.82
2392.00,99.82
2391.00,99.83
2390.00,99.83
2389.00,99.83
2388.00,99.83
2387.00,99.82
2386.00,99.83
2385.00,99.83
2384.00,99.84
2383.00,99.84
2382.00,99.85
2381.00,99.86
2380.00,99.87
2379.00,99.88
2378.00,99.89
2377.00,99.90
2376.00,99.90
2375.00,99.90
2374.00,99.90
2373.00,99.90
2372.00,99.90
2371.00,99.91
2370.00,99.92
2369.00,99.94
2368.00,99.94
2367.00,99.95
2366.00,99.95
2365.00,99.94
2364.00,99.93
2363.00,99.92
2362.00,99.91
2361.00,99.90
2360.00,99.90
2359.00,99.90
2358.00,99.89
2357.00,99.89
2356.00,99.90
2355.00,99.90
2354.00,99.90
2353.00,99.90
2352.00,99.90
2351.00,99.90
2350.00,99.90
2349.00,99.89
2348.00,99.88
2347.00,99.88
2346.00,99.88
2345.00,99.87
2344.00,99.86
2343.00,99.86
2342.00,99.85
2341.00,99.85
2340.00,99.85
2339.00,99.84
2338.00,99.84
2337.00,99.83
2336.00,99.83
2335.00,99.83
2334.00,99.83
2333.00,99.83
2332.00,99.83
2331.00,99.83
2330.00,99.83
2329.00,99.82
2328.00,99.81
2327.00,99.78
2326.00,99.73
2325.00,99.68
2324.00,99.64
2323.00,99.63
2322.00,99.64
2321.00,99.66
2320.00,99.69
2319.00,99.70
2318.00,99.71
2317.00,99.72
2316.00,99.72
2315.00,99.73
2314.00,99.74
2313.00,99.74
2312.00,99.74
2311.00,99.74
2310.00,99.74
2309.00,99.73
2308.00,99.72
2307.00,99.72
2306.00,99.72
2305.00,99.71
2304.00,99.70
2303.00,99.69
2302.00,99.69
2301.00,99.68
2300.00,99.68
2299.00,99.68
2298.00,99.69
2297.00,99.68
2296.00,99.68
2295.00,99.67
2294.00,99.66
2293.00,99.65
2292.00,99.64
2291.00,99.62
2290.00,99.61
2289.00,99.60
2288.00,99.60
2287.00,99.59
2286.00,99.59
2285.00,99.59
2284.00,99.60
2283.00,99.60
2282.00,99.61
2281.00,99.62
2280.00,99.62
2279.00,99.62
2278.00,99.62
2277.00,99.62
2276.00,99.62
2275.00,99.62
2274.00,99.62
2273.00,99.63
2272.00,99.63
2271.00,99.63
2270.00,99.64
2269.00,99.65
2268.00,99.66
2267.00,99.66
2266.00,99.66
2265.00,99.67
2264.00,99.67
2263.00,99.67
2262.00,99.67
2261.00,99.67
2260.00,99.66
2259.00,99.65
2258.00,99.64
2257.00,99.64
2256.00,99.65
2255.00,99.66
2254.00,99.67
2253.00,99.68
2252.00,99.68
2251.00,99.67
2250.00,99.66
2249.00,99.66
2248.00,99.65
2247.00,99.65
2246.00,99.66
2245.00,99.66
2244.00,99.66
2243.00,99.66
2242.00,99.66
2241.00,99.65
2240.00,99.64
2239.00,99.63
2238.00,99.63
2237.00,99.63
2236.00,99.64
2235.00,99.65
2234.00,99.65
2233.00,99.66
2232.00,99.67
2231.00,99.67
2230.00,99.67
2229.00,99.66
2228.00,99.66
2227.00,99.65
2226.00,99.65
2225.00,99.65
2224.00,99.65
2223.00,99.64
2222.00,99.63
2221.00,99.63
2220.00,99.63
2219.00,99.63
2218.00,99.63
2217.00,99.63
2216.00,99.63
2215.00,99.63
2214.00,99.63
2213.00,99.63
2212.00,99.64
2211.00,99.65
2210.00,99.66
2209.00,99.65
2208.00,99.64
2207.00,99.63
2206.00,99.63
2205.00,99.64
2204.00,99.64
2203.00,99.64
2202.00,99.64
2201.00,99.63
2200.00,99.62
2199.00,99.62
2198.00,99.62
2197.00,99.61
2196.00,99.61
2195.00,99.60
2194.00,99.59
2193.00,99.59
2192.00,99.59
2191.00,99.59
2190.00,99.58
2189.00,99.57
2188.00,99.55
2187.00,99.54
2186.00,99.53
2185.00,99.53
2184.00,99.53
2183.00,99.55
2182.00,99.58
2181.00,99.60
2180.00,99.61
2179.00,99.60
2178.00,99.59
2177.00,99.59
2176.00,99.60
2175.00,99.61
2174.00,99.61
2173.00,99.60
2172.00,99.58
2171.00,99.55
2170.00,99.53
2169.00,99.50
2168.00,99.48
2167.00,99.45
2166.00,99.43
2165.00,99.41
2164.00,99.39
2163.00,99.38
2162.00,99.38
2161.00,99.42
2160.00,99.52
2159.00,99.66
2158.00,99.80
2157.00,99.90
2156.00,99.93
2155.00,99.93
2154.00,99.92
2153.00,99.90
2152.00,99.87
2151.00,99.84
2150.00,99.82
2149.00,99.81
2148.00,99.81
2147.00,99.82
2146.00,99.83
2145.00,99.83
2144.00,99.83
2143.00,99.83
2142.00,99.83
2141.00,99.83
2140.00,99.83
2139.00,99.83
2138.00,99.83
2137.00,99.84
2136.00,99.86
2135.00,99.89
2134.00,99.92
2133.00,99.93
2132.00,99.93
2131.00,99.91
2130.00,99.89
2129.00,99.88
2128.00,99.87
2127.00,99.86
2126.00,99.85
2125.00,99.83
2124.00,99.81
2123.00,99.80
2122.00,99.79
2121.00,99.79
2120.00,99.77
2119.00,99.76
2118.00,99.74
2117.00,99.72
2116.00,99.71
2115.00,99.70
2114.00,99.69
2113.00,99.69
2112.00,99.69
2111.00,99.68
2110.00,99.69
2109.00,99.69
2108.00,99.70
2107.00,99.70
2106.00,99.70
2105.00,99.70
2104.00,99.69
2103.00,99.69
2102.00,99.68
2101.00,99.68
2100.00,99.67
2099.00,99.68
2098.00,99.69
2097.00,99.70
2096.00,99.73
2095.00,99.76
2094.00,99.77
2093.00,99.77
2092.00,99.76
2091.00,99.74
2090.00,99.73
2089.00,99.71
2088.00,99.70
2087.00,99.69
2086.00,99.69
2085.00,99.68
2084.00,99.68
2083.00,99.68
2082.00,99.67
2081.00,99.67
2080.00,99.66
2079.00,99.66
2078.00,99.66
2077.00,99.66
2076.00,99.66
2075.00,99.66
2074.00,99.66
2073.00,99.66
2072.00,99.66
2071.00,99.67
2070.00,99.67
2069.00,99.67
2068.00,99.67
2067.00,99.67
2066.00,99.67
2065.00,99.67
2064.00,99.67
2063.00,99.67
2062.00,99.67
2061.00,99.67
2060.00,99.66
2059.00,99.66
2058.00,99.66
2057.00,99.66
2056.00,99.65
2055.00,99.66
2054.00,99.65
2053.00,99.63
2052.00,99.58
2051.00,99.52
2050.00,99.49
2049.00,99.49
2048.00,99.51
2047.00,99.54
2046.00,99.56
2045.00,99.57
2044.00,99.57
2043.00,99.57
2042.00,99.56
2041.00,99.54
2040.00,99.52
2039.00,99.51
2038.00,99.49
2037.00,99.49
2036.00,99.49
2035.00,99.50
2034.00,99.51
2033.00,99.53
2032.00,99.55
2031.00,99.58
2030.00,99.61
2029.00,99.63
2028.00,99.62
2027.00,99.60
2026.00,99.59
2025.00,99.60
2024.00,99.61
2023.00,99.63
2022.00,99.64
2021.00,99.64
2020.00,99.64
2019.00,99.64
2018.00,99.64
2017.00,99.64
2016.00,99.65
2015.00,99.65
2014.00,99.65
2013.00,99.65
2012.00,99.64
2011.00,99.62
2010.00,99.61
2009.00,99.62
2008.00,99.66
2007.00,99.70
2006.00,99.73
2005.00,99.74
2004.00,99.74
2003.00,99.72
2002.00,99.71
2001.00,99.70
2000.00,99.69
1999.00,99.68
1998.00,99.67
1997.00,99.66
1996.00,99.64
1995.00,99.63
1994.00,99.62
1993.00,99.62
1992.00,99.62
1991.00,99.61
1990.00,99.60
1989.00,99.58
1988.00,99.57
1987.00,99.55
1986.00,99.54
1985.00,99.53
1984.00,99.51
1983.00,99.49
1982.00,99.46
1981.00,99.43
1980.00,99.41
1979.00,99.44
1978.00,99.51
1977.00,99.59
1976.00,99.64
1975.00,99.67
1974.00,99.67
1973.00,99.67
1972.00,99.67
1971.00,99.67
1970.00,99.69
1969.00,99.70
1968.00,99.72
1967.00,99.73
1966.00,99.74
1965.00,99.74
1964.00,99.73
1963.00,99.72
1962.00,99.72
1961.00,99.73
1960.00,99.75
1959.00,99.77
1958.00,99.78
1957.00,99.79
1956.00,99.78
1955.00,99.77
1954.00,99.76
1953.00,99.76
1952.00,99.76
1951.00,99.77
1950.00,99.78
1949.00,99.79
1948.00,99.80
1947.00,99.80
1946.00,99.80
1945.00,99.80
1944.00,99.79
1943.00,99.77
1942.00,99.77
1941.00,99.78
1940.00,99.79
1939.00,99.80
1938.00,99.80
1937.00,99.80
1936.00,99.79
1935.00,99.78
1934.00,99.79
1933.00,99.80
1932.00,99.81
1931.00,99.81
1930.00,99.80
1929.00,99.79
1928.00,99.80
1927.00,99.80
1926.00,99.81
1925.00,99.82
1924.00,99.81
1923.00,99.80
1922.00,99.79
1921.00,99.78
1920.00,99.77
1919.00,99.77
1918.00,99.76
1917.00,99.76
1916.00,99.75
1915.00,99.75
1914.00,99.75
1913.00,99.76
1912.00,99.77
1911.00,99.78
1910.00,99.78
1909.00,99.78
1908.00,99.77
1907.00,99.77
1906.00,99.77
1905.00,99.77
1904.00,99.77
1903.00,99.77
1902.00,99.77
1901.00,99.77
1900.00,99.77
1899.00,99.77
1898.00,99.78
1897.00,99.78
1896.00,99.78
1895.00,99.77
1894.00,99.77
1893.00,99.77
1892.00,99.77
1891.00,99.78
1890.00,99.78
1889.00,99.78
1888.00,99.78
1887.00,99.78
1886.00,99.77
1885.00,99.77
1884.00,99.76
1883.00,99.77
1882.00,99.77
1881.00,99.78
1880.00,99.78
1879.00,99.78
1878.00,99.78
1877.00,99.78
1876.00,99.78
1875.00,99.77
1874.00,99.76
1873.00,99.76
1872.00,99.76
1871.00,99.76
1870.00,99.77
1869.00,99.78
1868.00,99.78
1867.00,99.79
1866.00,99.79
1865.00,99.79
1864.00,99.80
1863.00,99.80
1862.00,99.79
1861.00,99.79
1860.00,99.78
1859.00,99.78
1858.00,99.78
1857.00,99.78
1856.00,99.77
1855.00,99.77
1854.00,99.77
1853.00,99.77
1852.00,99.77
1851.00,99.77
1850.00,99.78
1849.00,99.78
1848.00,99.78
1847.00,99.78
1846.00,99.78
1845.00,99.79
1844.00,99.79
1843.00,99.79
1842.00,99.79
1841.00,99.79
1840.00,99.79
1839.00,99.79
1838.00,99.79
1837.00,99.79
1836.00,99.79
1835.00,99.79
1834.00,99.79
1833.00,99.78
1832.00,99.78
1831.00,99.78
1830.00,99.78
1829.00,99.78
1828.00,99.78
1827.00,99.78
1826.00,99.77
1825.00,99.77
1824.00,99.77
1823.00,99.77
1822.00,99.77
1821.00,99.78
1820.00,99.79
1819.00,99.80
1818.00,99.82
1817.00,99.83
1816.00,99.83
1815.00,99.82
1814.00,99.82
1813.00,99.81
1812.00,99.81
1811.00,99.81
1810.00,99.80
1809.00,99.80
1808.00,99.79
1807.00,99.79
1806.00,99.78
1805.00,99.77
1804.00,99.77
1803.00,99.77
1802.00,99.77
1801.00,99.78
1800.00,99.78
1799.00,99.78
1798.00,99.77
1797.00,99.77
1796.00,99.77
1795.00,99.78
1794.00,99.78
1793.00,99.78
1792.00,99.78
1791.00,99.78
1790.00,99.77
1789.00,99.77
1788.00,99.77
1787.00,99.77
1786.00,99.77
1785.00,99.77
1784.00,99.76
1783.00,99.76
1782.00,99.76
1781.00,99.76
1780.00,99.76
1779.00,99.76
1778.00,99.77
1777.00,99.77
1776.00,99.78
1775.00,99.78
1774.00,99.77
1773.00,99.77
1772.00,99.76
1771.00,99.75
1770.00,99.75
1769.00,99.75
1768.00,99.75
1767.00,99.75
1766.00,99.75
1765.00,99.75
1764.00,99.74
1763.00,99.74
1762.00,99.73
1761.00,99.73
1760.00,99.73
1759.00,99.73
1758.00,99.72
1757.00,99.70
1756.00,99.69
1755.00,99.68
1754.00,99.66
1753.00,99.64
1752.00,99.61
1751.00,99.57
1750.00,99.51
1749.00,99.41
1748.00,99.29
1747.00,99.14
1746.00,98.98
1745.00,98.85
1744.00,98.77
1743.00,98.76
1742.00,98.79
1741.00,98.84
1740.00,98.88
1739.00,98.90
1738.00,98.89
1737.00,98.88
1736.00,98.84
1735.00,98.81
1734.00,98.81
1733.00,98.85
1732.00,98.93
1731.00,99.03
1730.00,99.13
1729.00,99.21
1728.00,99.28
1727.00,99.34
1726.00,99.39
1725.00,99.44
1724.00,99.48
1723.00,99.52
1722.00,99.55
1721.00,99.57
1720.00,99.59
1719.00,99.60
1718.00,99.63
1717.00,99.64
1716.00,99.66
1715.00,99.66
1714.00,99.67
1713.00,99.67
1712.00,99.67
1711.00,99.68
1710.00,99.68
1709.00,99.68
1708.00,99.68
1707.00,99.69
1706.00,99.69
1705.00,99.69
1704.00,99.69
1703.00,99.69
1702.00,99.70
1701.00,99.70
1700.00,99.70
1699.00,99.70
1698.00,99.70
1697.00,99.70
1696.00,99.69
1695.00,99.69
1694.00,99.69
1693.00,99.69
1692.00,99.69
1691.00,99.69
1690.00,99.69
1689.00,99.70
1688.00,99.70
1687.00,99.70
1686.00,99.71
1685.00,99.71
1684.00,99.71
1683.00,99.70
1682.00,99.70
1681.00,99.71
1680.00,99.71
1679.00,99.71
1678.00,99.71
1677.00,99.70
1676.00,99.70
1675.00,99.70
1674.00,99.70
1673.00,99.70
1672.00,99.70
1671.00,99.70
1670.00,99.70
1669.00,99.70
1668.00,99.70
1667.00,99.71
1666.00,99.70
1665.00,99.70
1664.00,99.70
1663.00,99.70
1662.00,99.70
1661.00,99.70
1660.00,99.70
1659.00,99.70
1658.00,99.70
1657.00,99.69
1656.00,99.69
1655.00,99.69
1654.00,99.69
1653.00,99.69
1652.00,99.69
1651.00,99.69
1650.00,99.69
1649.00,99.69
1648.00,99.69
1647.00,99.69
1646.00,99.69
1645.00,99.69
1644.00,99.69
1643.00,99.69
1642.00,99.69
1641.00,99.69
1640.00,99.68
1639.00,99.68
1638.00,99.68
1637.00,99.69
1636.00,99.69
1635.00,99.69
1634.00,99.69
1633.00,99.69
1632.00,99.69
1631.00,99.69
1630.00,99.69
1629.00,99.70
1628.00,99.70
1627.00,99.70
1626.00,99.69
1625.00,99.69
1624.00,99.69
1623.00,99.69
1622.00,99.69
1621.00,99.69
1620.00,99.69
1619.00,99.69
1618.00,99.69
1617.00,99.69
1616.00,99.68
1615.00,99.68
1614.00,99.68
1613.00,99.68
1612.00,99.68
1611.00,99.68
1610.00,99.68
1609.00,99.68
1608.00,99.68
1607.00,99.69
1606.00,99.69
1605.00,99.69
1604.00,99.69
1603.00,99.69
1602.00,99.70
1601.00,99.70
1600.00,99.69
1599.00,99.69
1598.00,99.70
1597.00,99.70
1596.00,99.69
1595.00,99.69
1594.00,99.69
1593.00,99.69
1592.00,99.69
1591.00,99.69
1590.00,99.69
1589.00,99.69
1588.00,99.69
1587.00,99.69
1586.00,99.69
1585.00,99.69
1584.00,99.68
1583.00,99.68
1582.00,99.68
1581.00,99.68
1580.00,99.67
1579.00,99.67
1578.00,99.68
1577.00,99.68
1576.00,99.68
1575.00,99.68
1574.00,99.68
1573.00,99.68
1572.00,99.68
1571.00,99.68
1570.00,99.68
1569.00,99.69
1568.00,99.69
1567.00,99.69
1566.00,99.69
1565.00,99.68
1564.00,99.68
1563.00,99.68
1562.00,99.68
1561.00,99.68
1560.00,99.68
1559.00,99.69
1558.00,99.69
1557.00,99.69
1556.00,99.69
1555.00,99.68
1554.00,99.68
1553.00,99.68
1552.00,99.68
1551.00,99.68
1550.00,99.68
1549.00,99.68
1548.00,99.68
1547.00,99.68
1546.00,99.68
1545.00,99.69
1544.00,99.68
1543.00,99.68
1542.00,99.68
1541.00,99.68
1540.00,99.68
1539.00,99.68
1538.00,99.69
1537.00,99.69
1536.00,99.69
1535.00,99.69
1534.00,99.69
1533.00,99.69
1532.00,99.68
1531.00,99.68
1530.00,99.69
1529.00,99.69
1528.00,99.68
1527.00,99.68
1526.00,99.68
1525.00,99.67
1524.00,99.67
1523.00,99.66
1522.00,99.66
1521.00,99.66
1520.00,99.66
1519.00,99.66
1518.00,99.66
1517.00,99.65
1516.00,99.64
1515.00,99.64
1514.00,99.64
1513.00,99.65
1512.00,99.65
1511.00,99.65
1510.00,99.64
1509.00,99.64
1508.00,99.63
1507.00,99.63
1506.00,99.63
1505.00,99.63
1504.00,99.63
1503.00,99.63
1502.00,99.62
1501.00,99.62
1500.00,99.61
1499.00,99.60
1498.00,99.60
1497.00,99.59
1496.00,99.58
1495.00,99.57
1494.00,99.57
1493.00,99.56
1492.00,99.54
1491.00,99.53
1490.00,99.52
1489.00,99.50
1488.00,99.48
1487.00,99.46
1486.00,99.43
1485.00,99.41
1484.00,99.37
1483.00,99.34
1482.00,99.31
1481.00,99.26
1480.00,99.21
1479.00,99.16
1478.00,99.09
1477.00,98.99
1476.00,98.86
1475.00,98.71
1474.00,98.53
1473.00,98.33
1472.00,98.14
1471.00,97.98
1470.00,97.82
1469.00,97.64
1468.00,97.43
1467.00,97.18
1466.00,96.88
1465.00,96.55
1464.00,96.26
1463.00,96.06
1462.00,95.94
1461.00,95.86
1460.00,95.82
1459.00,95.80
1458.00,95.77
1457.00,95.75
1456.00,95.72
1455.00,95.71
1454.00,95.70
1453.00,95.72
1452.00,95.76
1451.00,95.85
1450.00,96.00
1449.00,96.22
1448.00,96.51
1447.00,96.84
1446.00,97.14
1445.00,97.41
1444.00,97.65
1443.00,97.85
1442.00,98.00
1441.00,98.11
1440.00,98.17
1439.00,98.20
1438.00,98.20
1437.00,98.20
1436.00,98.25
1435.00,98.35
1434.00,98.47
1433.00,98.63
1432.00,98.78
1431.00,98.93
1430.00,99.04
1429.00,99.12
1428.00,99.17
1427.00,99.21
1426.00,99.23
1425.00,99.25
1424.00,99.26
1423.00,99.26
1422.00,99.26
1421.00,99.26
1420.00,99.26
1419.00,99.25
1418.00,99.25
1417.00,99.27
1416.00,99.29
1415.00,99.30
1414.00,99.30
1413.00,99.30
1412.00,99.28
1411.00,99.27
1410.00,99.26
1409.00,99.27
1408.00,99.29
1407.00,99.31
1406.00,99.31
1405.00,99.32
1404.00,99.32
1403.00,99.31
1402.00,99.30
1401.00,99.30
1400.00,99.29
1399.00,99.27
1398.00,99.26
1397.00,99.25
1396.00,99.24
1395.00,99.24
1394.00,99.23
1393.00,99.22
1392.00,99.21
1391.00,99.20
1390.00,99.17
1389.00,99.12
1388.00,99.04
1387.00,98.91
1386.00,98.72
1385.00,98.48
1384.00,98.16
1383.00,97.72
1382.00,97.18
1381.00,96.52
1380.00,95.77
1379.00,94.98
1378.00,94.29
1377.00,93.82
1376.00,93.68
1375.00,93.94
1374.00,94.52
1373.00,95.24
1372.00,95.93
1371.00,96.53
1370.00,97.05
1369.00,97.47
1368.00,97.77
1367.00,97.96
1366.00,98.07
1365.00,98.12
1364.00,98.11
1363.00,98.06
1362.00,97.97
1361.00,97.89
1360.00,97.82
1359.00,97.79
1358.00,97.83
1357.00,97.92
1356.00,98.05
1355.00,98.20
1354.00,98.35
1353.00,98.48
1352.00,98.60
1351.00,98.70
1350.00,98.78
1349.00,98.86
1348.00,98.92
1347.00,98.99
1346.00,99.04
1345.00,99.09
1344.00,99.13
1343.00,99.17
1342.00,99.20
1341.00,99.22
1340.00,99.24
1339.00,99.26
1338.00,99.26
1337.00,99.26
1336.00,99.27
1335.00,99.27
1334.00,99.26
1333.00,99.26
1332.00,99.25
1331.00,99.24
1330.00,99.23
1329.00,99.24
1328.00,99.25
1327.00,99.27
1326.00,99.30
1325.00,99.32
1324.00,99.34
1323.00,99.36
1322.00,99.38
1321.00,99.40
1320.00,99.41
1319.00,99.42
1318.00,99.43
1317.00,99.44
1316.00,99.44
1315.00,99.44
1314.00,99.45
1313.00,99.44
1312.00,99.44
1311.00,99.43
1310.00,99.40
1309.00,99.37
1308.00,99.33
1307.00,99.28
1306.00,99.23
1305.00,99.19
1304.00,99.18
1303.00,99.20
1302.00,99.23
1301.00,99.25
1300.00,99.27
1299.00,99.27
1298.00,99.28
1297.00,99.28
1296.00,99.29
1295.00,99.31
1294.00,99.32
1293.00,99.34
1292.00,99.35
1291.00,99.37
1290.00,99.38
1289.00,99.39
1288.00,99.40
1287.00,99.41
1286.00,99.42
1285.00,99.42
1284.00,99.43
1283.00,99.43
1282.00,99.44
1281.00,99.44
1280.00,99.45
1279.00,99.45
1278.00,99.45
1277.00,99.45
1276.00,99.45
1275.00,99.45
1274.00,99.45
1273.00,99.45
1272.00,99.44
1271.00,99.44
1270.00,99.43
1269.00,99.42
1268.00,99.41
1267.00,99.40
1266.00,99.39
1265.00,99.39
1264.00,99.37
1263.00,99.36
1262.00,99.34
1261.00,99.31
1260.00,99.27
1259.00,99.23
1258.00,99.19
1257.00,99.16
1256.00,99.16
1255.00,99.17
1254.00,99.20
1253.00,99.24
1252.00,99.27
1251.00,99.28
1250.00,99.27
1249.00,99.25
1248.00,99.21
1247.00,99.17
1246.00,99.13
1245.00,99.08
1244.00,99.03
1243.00,98.98
1242.00,98.94
1241.00,98.92
1240.00,98.94
1239.00,98.99
1238.00,99.06
1237.00,99.13
1236.00,99.21
1235.00,99.27
1234.00,99.33
1233.00,99.37
1232.00,99.41
1231.00,99.44
1230.00,99.46
1229.00,99.47
1228.00,99.47
1227.00,99.47
1226.00,99.48
1225.00,99.48
1224.00,99.49
1223.00,99.49
1222.00,99.48
1221.00,99.47
1220.00,99.47
1219.00,99.46
1218.00,99.46
1217.00,99.47
1216.00,99.48
1215.00,99.49
1214.00,99.50
1213.00,99.51
1212.00,99.51
1211.00,99.52
1210.00,99.53
1209.00,99.53
1208.00,99.52
1207.00,99.52
1206.00,99.51
1205.00,99.50
1204.00,99.50
1203.00,99.50
1202.00,99.50
1201.00,99.50
1200.00,99.49
1199.00,99.49
1198.00,99.47
1197.00,99.46
1196.00,99.45
1195.00,99.44
1194.00,99.42
1193.00,99.40
1192.00,99.37
1191.00,99.34
1190.00,99.31
1189.00,99.26
1188.00,99.18
1187.00,99.08
1186.00,98.94
1185.00,98.78
1184.00,98.62
1183.00,98.49
1182.00,98.40
1181.00,98.36
1180.00,98.36
1179.00,98.38
1178.00,98.40
1177.00,98.41
1176.00,98.39
1175.00,98.35
1174.00,98.27
1173.00,98.17
1172.00,98.06
1171.00,97.95
1170.00,97.86
1169.00,97.81
1168.00,97.80
1167.00,97.85
1166.00,97.94
1165.00,98.05
1164.00,98.16
1163.00,98.28
1162.00,98.39
1161.00,98.49
1160.00,98.58
1159.00,98.65
1158.00,98.71
1157.00,98.75
1156.00,98.78
1155.00,98.81
1154.00,98.84
1153.00,98.87
1152.00,98.90
1151.00,98.94
1150.00,98.99
1149.00,99.03
1148.00,99.07
1147.00,99.11
1146.00,99.15
1145.00,99.19
1144.00,99.22
1143.00,99.26
1142.00,99.29
1141.00,99.32
1140.00,99.35
1139.00,99.37
1138.00,99.40
1137.00,99.42
1136.00,99.44
1135.00,99.45
1134.00,99.47
1133.00,99.47
1132.00,99.48
1131.00,99.47
1130.00,99.47
1129.00,99.46
1128.00,99.46
1127.00,99.46
1126.00,99.47
1125.00,99.48
1124.00,99.49
1123.00,99.49
1122.00,99.49
1121.00,99.49
1120.00,99.49
1119.00,99.48
1118.00,99.48
1117.00,99.48
1116.00,99.48
1115.00,99.47
1114.00,99.47
1113.00,99.47
1112.00,99.46
1111.00,99.45
1110.00,99.44
1109.00,99.43
1108.00,99.41
1107.00,99.39
1106.00,99.37
1105.00,99.35
1104.00,99.32
1103.00,99.31
1102.00,99.30
1101.00,99.31
1100.00,99.33
1099.00,99.35
1098.00,99.38
1097.00,99.41
1096.00,99.44
1095.00,99.45
1094.00,99.46
1093.00,99.47
1092.00,99.47
1091.00,99.47
1090.00,99.48
1089.00,99.48
1088.00,99.48
1087.00,99.48
1086.00,99.47
1085.00,99.48
1084.00,99.48
1083.00,99.49
1082.00,99.49
1081.00,99.49
1080.00,99.49
1079.00,99.48
1078.00,99.48
1077.00,99.48
1076.00,99.48
1075.00,99.48
1074.00,99.48
1073.00,99.48
1072.00,99.48
1071.00,99.48
1070.00,99.48
1069.00,99.48
1068.00,99.46
1067.00,99.43
1066.00,99.41
1065.00,99.39
1064.00,99.38
1063.00,99.38
1062.00,99.39
1061.00,99.40
1060.00,99.40
1059.00,99.40
1058.00,99.40
1057.00,99.39
1056.00,99.39
1055.00,99.39
1054.00,99.39
1053.00,99.40
1052.00,99.40
1051.00,99.39
1050.00,99.38
1049.00,99.37
1048.00,99.36
1047.00,99.36
1046.00,99.35
1045.00,99.35
1044.00,99.35
1043.00,99.37
1042.00,99.38
1041.00,99.40
1040.00,99.42
1039.00,99.43
1038.00,99.44
1037.00,99.44
1036.00,99.44
1035.00,99.44
1034.00,99.45
1033.00,99.45
1032.00,99.45
1031.00,99.46
1030.00,99.46
1029.00,99.46
1028.00,99.47
1027.00,99.46
1026.00,99.46
1025.00,99.46
1024.00,99.46
1023.00,99.46
1022.00,99.45
1021.00,99.45
1020.00,99.44
1019.00,99.43
1018.00,99.43
1017.00,99.43
1016.00,99.43
1015.00,99.43
1014.00,99.43
1013.00,99.42
1012.00,99.39
1011.00,99.37
1010.00,99.35
1009.00,99.32
1008.00,99.29
1007.00,99.24
1006.00,99.18
1005.00,99.09
1004.00,98.98
1003.00,98.84
1002.00,98.65
1001.00,98.44
1000.00,98.22
999.00,98.05
998.00,97.98
997.00,98.03
996.00,98.18
995.00,98.38
994.00,98.59
993.00,98.77
992.00,98.92
991.00,99.03
990.00,99.12
989.00,99.18
988.00,99.22
987.00,99.24
986.00,99.24
985.00,99.23
984.00,99.20
983.00,99.15
982.00,99.09
981.00,99.00
980.00,98.87
979.00,98.71
978.00,98.51
977.00,98.28
976.00,98.05
975.00,97.85
974.00,97.70
973.00,97.67
972.00,97.75
971.00,97.95
970.00,98.19
969.00,98.44
968.00,98.65
967.00,98.82
966.00,98.94
965.00,99.02
964.00,99.09
963.00,99.14
962.00,99.18
961.00,99.22
960.00,99.25
959.00,99.28
958.00,99.30
957.00,99.32
956.00,99.33
955.00,99.34
954.00,99.35
953.00,99.36
952.00,99.36
951.00,99.37
950.00,99.38
949.00,99.39
948.00,99.40
947.00,99.40
946.00,99.39
945.00,99.38
944.00,99.37
943.00,99.36
942.00,99.35
941.00,99.34
940.00,99.34
939.00,99.35
938.00,99.36
937.00,99.37
936.00,99.37
935.00,99.38
934.00,99.39
933.00,99.40
932.00,99.41
931.00,99.43
930.00,99.44
929.00,99.45
928.00,99.46
927.00,99.45
926.00,99.45
925.00,99.44
924.00,99.44
923.00,99.45
922.00,99.46
921.00,99.47
920.00,99.48
919.00,99.47
918.00,99.46
917.00,99.45
916.00,99.44
915.00,99.44
914.00,99.44
913.00,99.44
912.00,99.43
911.00,99.43
910.00,99.42
909.00,99.41
908.00,99.40
907.00,99.37
906.00,99.33
905.00,99.27
904.00,99.20
903.00,99.11
902.00,99.02
901.00,98.94
900.00,98.90
899.00,98.90
898.00,98.94
897.00,99.00
896.00,99.08
895.00,99.15
894.00,99.21
893.00,99.26
892.00,99.29
891.00,99.31
890.00,99.33
889.00,99.34
888.00,99.36
887.00,99.38
886.00,99.39
885.00,99.40
884.00,99.40
883.00,99.40
882.00,99.40
881.00,99.40
880.00,99.39
879.00,99.37
878.00,99.36
877.00,99.35
876.00,99.36
875.00,99.37
874.00,99.37
873.00,99.37
872.00,99.37
871.00,99.36
870.00,99.36
869.00,99.36
868.00,99.35
867.00,99.35
866.00,99.34
865.00,99.33
864.00,99.33
863.00,99.32
862.00,99.32
861.00,99.33
860.00,99.33
859.00,99.32
858.00,99.30
857.00,99.28
856.00,99.27
855.00,99.26
854.00,99.25
853.00,99.25
852.00,99.24
851.00,99.22
850.00,99.20
849.00,99.15
848.00,99.10
847.00,99.01
846.00,98.88
845.00,98.68
844.00,98.41
843.00,98.12
842.00,97.89
841.00,97.82
840.00,97.94
839.00,98.20
838.00,98.49
837.00,98.73
836.00,98.89
835.00,99.00
834.00,99.06
833.00,99.11
832.00,99.13
831.00,99.15
830.00,99.16
829.00,99.17
828.00,99.19
827.00,99.21
826.00,99.23
825.00,99.23
824.00,99.24
823.00,99.23
822.00,99.22
821.00,99.21
820.00,99.20
819.00,99.19
818.00,99.17
817.00,99.14
816.00,99.10
815.00,99.04
814.00,98.96
813.00,98.88
812.00,98.79
811.00,98.72
810.00,98.68
809.00,98.67
808.00,98.70
807.00,98.76
806.00,98.83
805.00,98.91
804.00,98.97
803.00,99.03
802.00,99.07
801.00,99.10
800.00,99.13
799.00,99.15
798.00,99.16
797.00,99.17
796.00,99.18
795.00,99.18
794.00,99.18
793.00,99.18
792.00,99.18
791.00,99.18
790.00,99.18
789.00,99.18
788.00,99.19
787.00,99.20
786.00,99.22
785.00,99.24
784.00,99.26
783.00,99.27
782.00,99.29
781.00,99.30
780.00,99.31
779.00,99.32
778.00,99.32
777.00,99.32
776.00,99.33
775.00,99.34
774.00,99.36
773.00,99.37
772.00,99.37
771.00,99.38
770.00,99.38
769.00,99.38
768.00,99.39
767.00,99.39
766.00,99.39
765.00,99.40
764.00,99.41
763.00,99.41
762.00,99.40
761.00,99.39
760.00,99.38
759.00,99.38
758.00,99.39
757.00,99.40
756.00,99.39
755.00,99.38
754.00,99.37
753.00,99.38
752.00,99.39
751.00,99.39
750.00,99.39
749.00,99.39
748.00,99.39
747.00,99.38
746.00,99.37
745.00,99.36
744.00,99.35
743.00,99.35
742.00,99.35
741.00,99.36
740.00,99.38
739.00,99.38
738.00,99.36
737.00,99.33
736.00,99.30
735.00,99.27
734.00,99.24
733.00,99.20
732.00,99.17
731.00,99.16
730.00,99.17
729.00,99.20
728.00,99.24
727.00,99.27
726.00,99.28
725.00,99.28
724.00,99.26
723.00,99.24
722.00,99.21
721.00,99.17
720.00,99.14
719.00,99.15
718.00,99.19
717.00,99.24
716.00,99.28
715.00,99.32
714.00,99.35
713.00,99.36
712.00,99.36
711.00,99.34
710.00,99.34
709.00,99.34
708.00,99.35
707.00,99.36
706.00,99.36
705.00,99.35
704.00,99.34
703.00,99.34
702.00,99.34
701.00,99.35
700.00,99.34
699.00,99.33
698.00,99.32
697.00,99.32
696.00,99.33
695.00,99.34
694.00,99.36
693.00,99.36
692.00,99.36
691.00,99.35
690.00,99.34
689.00,99.34
688.00,99.34
687.00,99.33
686.00,99.33
685.00,99.33
684.00,99.34
683.00,99.36
682.00,99.38
681.00,99.37
680.00,99.34
679.00,99.33
678.00,99.34
677.00,99.35
676.00,99.35
675.00,99.33
674.00,99.31
673.00,99.30
672.00,99.31
671.00,99.33
670.00,99.33
669.00,99.35
668.00,99.36
667.00,99.36
666.00,99.34
665.00,99.33
664.00,99.32
663.00,99.31
662.00,99.31
661.00,99.31
660.00,99.31
659.00,99.31
658.00,99.31
657.00,99.29
656.00,99.28
655.00,99.28
654.00,99.30
653.00,99.33
652.00,99.35
651.00,99.34
650.00,99.32
