Created as New Dataset,PP granule 5mm GF
cm-1,%T
4000.00,100.00
3999.00,100.00
3998.00,100.00
3997.00,100.00
3996.00,100.00
3995.00,100.00
3994.00,100.00
3993.00,100.00
3992.00,100.00
3991.00,100.00
3990.00,100.00
3989.00,100.00
3988.00,100.00
3987.00,100.00
3986.00,100.00
3985.00,100.00
3984.00,100.00
3983.00,100.00
3982.00,100.01
3981.00,100.01
3980.00,100.01
3979.00,100.01
3978.00,100.01
3977.00,100.01
3976.00,100.00
3975.00,100.00
3974.00,100.00
3973.00,100.00
3972.00,100.00
3971.00,100.00
3970.00,100.00
3969.00,100.00
3968.00,100.00
3967.00,100.00
3966.00,100.00
3965.00,100.01
3964.00,100.01
3963.00,100.00
3962.00,100.00
3961.00,100.00
3960.00,100.00
3959.00,100.00
3958.00,100.00
3957.00,100.00
3956.00,100.00
3955.00,100.00
3954.00,100.00
3953.00,100.00
3952.00,100.00
3951.00,100.00
3950.00,100.00
3949.00,100.00
3948.00,100.00
3947.00,100.00
3946.00,100.00
3945.00,100.00
3944.00,100.00
3943.00,100.00
3942.00,100.00
3941.00,100.00
3940.00,100.00
3939.00,100.00
3938.00,100.00
3937.00,100.00
3936.00,100.00
3935.00,100.00
3934.00,100.00
3933.00,99.99
3932.00,99.99
3931.00,99.99
3930.00,99.99
3929.00,99.99
3928.00,99.99
3927.00,99.99
3926.00,99.99
3925.00,99.99
3924.00,99.99
3923.00,99.99
3922.00,99.99
3921.00,99.99
3920.00,99.99
3919.00,99.99
3918.00,99.99
3917.00,99.99
3916.00,99.99
3915.00,99.99
3914.00,99.99
3913.00,99.99
3912.00,99.99
3911.00,99.99
3910.00,99.99
3909.00,99.99
3908.00,99.99
3907.00,99.99
3906.00,99.99
3905.00,99.98
3904.00,99.99
3903.00,99.99
3902.00,99.99
3901.00,99.99
3900.00,99.99
3899.00,99.99
3898.00,99.99
3897.00,99.99
3896.00,99.99
3895.00,99.99
3894.00,99.99
3893.00,99.99
3892.00,99.99
3891.00,99.99
3890.00,99.99
3889.00,99.99
3888.00,99.99
3887.00,99.98
3886.00,99.98
3885.00,99.98
3884.00,99.99
3883.00,99.99
3882.00,99.98
3881.00,99.98
3880.00,99.98
3879.00,99.98
3878.00,99.98
3877.00,99.98
3876.00,99.98
3875.00,99.97
3874.00,99.97
3873.00,99.97
3872.00,99.98
3871.00,99.97
3870.00,99.97
3869.00,99.98
3868.00,99.98
3867.00,99.98
3866.00,99.98
3865.00,99.98
3864.00,99.98
3863.00,99.98
3862.00,99.98
3861.00,99.98
3860.00,99.98
3859.00,99.98
3858.00,99.99
3857.00,99.99
3856.00,100.00
3855.00,99.99
3854.00,99.99
3853.00,99.99
3852.00,99.99
3851.00,99.99
3850.00,99.99
3849.00,99.99
3848.00,99.99
3847.00,99.98
3846.00,99.98
3845.00,99.98
3844.00,99.97
3843.00,99.97
3842.00,99.97
3841.00,99.97
3840.00,99.97
3839.00,99.97
3838.00,99.98
3837.00,99.98
3836.00,99.98
3835.00,99.97
3834.00,99.97
3833.00,99.96
3832.00,99.96
3831.00,99.96
3830.00,99.97
3829.00,99.97
3828.00,99.97
3827.00,99.96
3826.00,99.96
3825.00,99.96
3824.00,99.97
3823.00,99.96
3822.00,99.96
3821.00,99.96
3820.00,99.97
3819.00,99.98
3818.00,99.98
3817.00,99.98
3816.00,99.97
3815.00,99.97
3814.00,99.98
3813.00,99.97
3812.00,99.97
3811.00,99.97
3810.00,99.97
3809.00,99.97
3808.00,99.96
3807.00,99.96
3806.00,99.96
3805.00,99.97
3804.00,99.97
3803.00,99.97
3802.00,99.97
3801.00,99.97
3800.00,99.98
3799.00,99.98
3798.00,99.97
3797.00,99.97
3796.00,99.97
3795.00,99.96
3794.00,99.96
3793.00,99.96
3792.00,99.95
3791.00,99.95
3790.00,99.95
3789.00,99.96
3788.00,99.96
3787.00,99.96
3786.00,99.96
3785.00,99.95
3784.00,99.95
3783.00,99.95
3782.00,99.96
3781.00,99.95
3780.00,99.95
3779.00,99.95
3778.00,99.96
3777.00,99.96
3776.00,99.96
3775.00,99.96
3774.00,99.95
3773.00,99.95
3772.00,99.95
3771.00,99.95
3770.00,99.95
3769.00,99.95
3768.00,99.95
3767.00,99.95
3766.00,99.95
3765.00,99.95
3764.00,99.95
3763.00,99.95
3762.00,99.95
3761.00,99.95
3760.00,99.95
3759.00,99.95
3758.00,99.95
3757.00,99.95
3756.00,99.95
3755.00,99.95
3754.00,99.95
3753.00,99.96
3752.00,99.96
3751.00,99.96
3750.00,99.96
3749.00,99.96
3748.00,99.96
3747.00,99.97
3746.00,99.96
3745.00,99.96
3744.00,99.96
3743.00,99.96
3742.00,99.96
3741.00,99.95
3740.00,99.95
3739.00,99.95
3738.00,99.95
3737.00,99.95
3736.00,99.95
3735.00,99.95
3734.00,99.95
3733.00,99.95
3732.00,99.95
3731.00,99.95
3730.00,99.95
3729.00,99.95
3728.00,99.95
3727.00,99.95
3726.00,99.95
3725.00,99.95
3724.00,99.94
3723.00,99.94
3722.00,99.94
3721.00,99.94
3720.00,99.94
3719.00,99.95
3718.00,99.95
3717.00,99.95
3716.00,99.95
3715.00,99.95
3714.00,99.95
3713.00,99.95
3712.00,99.95
3711.00,99.96
3710.00,99.96
3709.00,99.96
3708.00,99.96
3707.00,99.95
3706.00,99.95
3705.00,99.95
3704.00,99.95
3703.00,99.95
3702.00,99.95
3701.00,99.95
3700.00,99.95
3699.00,99.95
3698.00,99.96
3697.00,99.96
3696.00,99.96
3695.00,99.96
3694.00,99.96
3693.00,99.96
3692.00,99.96
3691.00,99.96
3690.00,99.96
3689.00,99.95
3688.00,99.95
3687.00,99.96
3686.00,99.96
3685.00,99.96
3684.00,99.95
3683.00,99.95
3682.00,99.94
3681.00,99.94
3680.00,99.94
3679.00,99.94
3678.00,99.95
3677.00,99.95
3676.00,99.95
3675.00,99.96
3674.00,99.96
3673.00,99.97
3672.00,99.97
3671.00,99.96
3670.00,99.96
3669.00,99.96
3668.00,99.96
3667.00,99.96
3666.00,99.95
3665.00,99.95
3664.00,99.95
3663.00,99.95
3662.00,99.95
3661.00,99.95
3660.00,99.95
3659.00,99.95
3658.00,99.95
3657.00,99.95
3656.00,99.95
3655.00,99.95
3654.00,99.95
3653.00,99.96
3652.00,99.96
3651.00,99.96
3650.00,99.96
3649.00,99.96
3648.00,99.96
3647.00,99.96
3646.00,99.96
3645.00,99.96
3644.00,99.96
3643.00,99.96
3642.00,99.96
3641.00,99.96
3640.00,99.96
3639.00,99.97
3638.00,99.97
3637.00,99.97
3636.00,99.96
3635.00,99.95
3634.00,99.95
3633.00,99.95
3632.00,99.96
3631.00,99.96
3630.00,99.96
3629.00,99.96
3628.00,99.97
3627.00,99.97
3626.00,99.97
3625.00,99.97
3624.00,99.97
3623.00,99.97
3622.00,99.97
3621.00,99.97
3620.00,99.96
3619.00,99.96
3618.00,99.96
3617.00,99.96
3616.00,99.97
3615.00,99.97
3614.00,99.96
3613.00,99.97
3612.00,99.97
3611.00,99.97
3610.00,99.97
3609.00,99.97
3608.00,99.97
3607.00,99.97
3606.00,99.97
3605.00,99.97
3604.00,99.98
3603.00,99.98
3602.00,99.98
3601.00,99.98
3600.00,99.98
3599.00,99.98
3598.00,99.98
3597.00,99.98
3596.00,99.97
3595.00,99.97
3594.00,99.97
3593.00,99.97
3592.00,99.97
3591.00,99.97
3590.00,99.97
3589.00,99.97
3588.00,99.97
3587.00,99.97
3586.00,99.97
3585.00,99.97
3584.00,99.97
3583.00,99.97
3582.00,99.97
3581.00,99.97
3580.00,99.97
3579.00,99.97
3578.00,99.97
3577.00,99.97
3576.00,99.97
3575.00,99.97
3574.00,99.97
3573.00,99.97
3572.00,99.97
3571.00,99.97
3570.00,99.97
3569.00,99.96
3568.00,99.96
3567.00,99.96
3566.00,99.96
3565.00,99.97
3564.00,99.97
3563.00,99.97
3562.00,99.97
3561.00,99.97
3560.00,99.97
3559.00,99.97
3558.00,99.97
3557.00,99.97
3556.00,99.96
3555.00,99.96
3554.00,99.96
3553.00,99.96
3552.00,99.97
3551.00,99.97
3550.00,99.97
3549.00,99.97
3548.00,99.97
3547.00,99.97
3546.00,99.97
3545.00,99.97
3544.00,99.97
3543.00,99.97
3542.00,99.97
3541.00,99.96
3540.00,99.96
3539.00,99.96
3538.00,99.97
3537.00,99.97
3536.00,99.97
3535.00,99.97
3534.00,99.97
3533.00,99.96
3532.00,99.96
3531.00,99.96
3530.00,99.96
3529.00,99.97
3528.00,99.97
3527.00,99.97
3526.00,99.97
3525.00,99.97
3524.00,99.96
3523.00,99.96
3522.00,99.96
3521.00,99.96
3520.00,99.96
3519.00,99.96
3518.00,99.96
3517.00,99.96
3516.00,99.97
3515.00,99.97
3514.00,99.97
3513.00,99.96
3512.00,99.96
3511.00,99.96
3510.00,99.97
3509.00,99.97
3508.00,99.97
3507.00,99.96
3506.00,99.96
3505.00,99.96
3504.00,99.96
3503.00,99.96
3502.00,99.96
3501.00,99.95
3500.00,99.95
3499.00,99.95
3498.00,99.95
3497.00,99.96
3496.00,99.96
3495.00,99.96
3494.00,99.97
3493.00,99.97
3492.00,99.97
3491.00,99.97
3490.00,99.97
3489.00,99.97
3488.00,99.97
3487.00,99.97
3486.00,99.97
3485.00,99.97
3484.00,99.97
3483.00,99.97
3482.00,99.96
3481.00,99.96
3480.00,99.97
3479.00,99.97
3478.00,99.97
3477.00,99.97
3476.00,99.96
3475.00,99.96
3474.00,99.96
3473.00,99.96
3472.00,99.96
3471.00,99.96
3470.00,99.97
3469.00,99.97
3468.00,99.97
3467.00,99.96
3466.00,99.96
3465.00,99.96
3464.00,99.96
3463.00,99.96
3462.00,99.96
3461.00,99.97
3460.00,99.97
3459.00,99.97
3458.00,99.97
3457.00,99.97
3456.00,99.96
3455.00,99.96
3454.00,99.96
3453.00,99.96
3452.00,99.96
3451.00,99.96
3450.00,99.96
3449.00,99.96
3448.00,99.96
3447.00,99.96
3446.00,99.96
3445.00,99.96
3444.00,99.96
3443.00,99.97
3442.00,99.97
3441.00,99.97
3440.00,99.97
3439.00,99.97
3438.00,99.97
3437.00,99.96
3436.00,99.96
3435.00,99.96
3434.00,99.96
3433.00,99.96
3432.00,99.96
3431.00,99.97
3430.00,99.97
3429.00,99.97
3428.00,99.97
3427.00,99.97
3426.00,99.97
3425.00,99.97
3424.00,99.97
3423.00,99.97
3422.00,99.97
3421.00,99.97
3420.00,99.96
3419.00,99.96
3418.00,99.96
3417.00,99.96
3416.00,99.96
3415.00,99.96
3414.00,99.96
3413.00,99.96
3412.00,99.96
3411.00,99.96
3410.00,99.96
3409.00,99.96
3408.00,99.96
3407.00,99.97
3406.00,99.97
3405.00,99.97
3404.00,99.97
3403.00,99.97
3402.00,99.97
3401.00,99.97
3400.00,99.97
3399.00,99.96
3398.00,99.96
3397.00,99.96
3396.00,99.96
3395.00,99.96
3394.00,99.96
3393.00,99.96
3392.00,99.96
3391.00,99.96
3390.00,99.96
3389.00,99.96
3388.00,99.96
3387.00,99.96
3386.00,99.96
3385.00,99.96
3384.00,99.96
3383.00,99.95
3382.00,99.95
3381.00,99.95
3380.00,99.96
3379.00,99.96
3378.00,99.96
3377.00,99.96
3376.00,99.96
3375.00,99.96
3374.00,99.96
3373.00,99.96
3372.00,99.96
3371.00,99.96
3370.00,99.96
3369.00,99.96
3368.00,99.96
3367.00,99.96
3366.00,99.96
3365.00,99.96
3364.00,99.96
3363.00,99.96
3362.00,99.96
3361.00,99.96
3360.00,99.96
3359.00,99.96
3358.00,99.95
3357.00,99.95
3356.00,99.94
3355.00,99.94
3354.00,99.95
3353.00,99.95
3352.00,99.96
3351.00,99.96
3350.00,99.96
3349.00,99.96
3348.00,99.96
3347.00,99.96
3346.00,99.96
3345.00,99.96
3344.00,99.96
3343.00,99.96
3342.00,99.96
3341.00,99.96
3340.00,99.96
3339.00,99.96
3338.00,99.96
3337.00,99.96
3336.00,99.96
3335.00,99.96
3334.00,99.96
3333.00,99.96
3332.00,99.96
3331.00,99.96
3330.00,99.96
3329.00,99.96
3328.00,99.96
3327.00,99.96
3326.00,99.96
3325.00,99.96
3324.00,99.96
3323.00,99.96
3322.00,99.96
3321.00,99.96
3320.00,99.96
3319.00,99.96
3318.00,99.96
3317.00,99.95
3316.00,99.95
3315.00,99.95
3314.00,99.95
3313.00,99.95
3312.00,99.96
3311.00,99.96
3310.00,99.96
3309.00,99.97
3308.00,99.97
3307.00,99.96
3306.00,99.96
3305.00,99.96
3304.00,99.96
3303.00,99.96
3302.00,99.96
3301.00,99.96
3300.00,99.96
3299.00,99.96
3298.00,99.96
3297.00,99.96
3296.00,99.96
3295.00,99.96
3294.00,99.95
3293.00,99.95
3292.00,99.95
3291.00,99.95
3290.00,99.95
3289.00,99.95
3288.00,99.95
3287.00,99.95
3286.00,99.95
3285.00,99.96
3284.00,99.96
3283.00,99.96
3282.00,99.96
3281.00,99.96
3280.00,99.96
3279.00,99.96
3278.00,99.96
3277.00,99.96
3276.00,99.96
3275.00,99.95
3274.00,99.95
3273.00,99.95
3272.00,99.95
3271.00,99.95
3270.00,99.95
3269.00,99.95
3268.00,99.95
3267.00,99.95
3266.00,99.96
3265.00,99.96
3264.00,99.96
3263.00,99.96
3262.00,99.95
3261.00,99.95
3260.00,99.95
3259.00,99.95
3258.00,99.95
3257.00,99.96
3256.00,99.96
3255.00,99.95
3254.00,99.95
3253.00,99.95
3252.00,99.95
3251.00,99.95
3250.00,99.95
3249.00,99.95
3248.00,99.95
3247.00,99.95
3246.00,99.95
3245.00,99.95
3244.00,99.95
3243.00,99.95
3242.00,99.95
3241.00,99.95
3240.00,99.95
3239.00,99.95
3238.00,99.94
3237.00,99.94
3236.00,99.94
3235.00,99.95
3234.00,99.95
3233.00,99.95
3232.00,99.95
3231.00,99.95
3230.00,99.95
3229.00,99.95
3228.00,99.95
3227.00,99.95
3226.00,99.95
3225.00,99.95
3224.00,99.95
3223.00,99.95
3222.00,99.94
3221.00,99.94
3220.00,99.93
3219.00,99.93
3218.00,99.93
3217.00,99.93
3216.00,99.93
3215.00,99.93
3214.00,99.94
3213.00,99.94
3212.00,99.94
3211.00,99.94
3210.00,99.94
3209.00,99.94
3208.00,99.94
3207.00,99.94
3206.00,99.94
3205.00,99.94
3204.00,99.94
3203.00,99.93
3202.00,99.93
3201.00,99.93
3200.00,99.93
3199.00,99.94
3198.00,99.94
3197.00,99.94
3196.00,99.93
3195.00,99.93
3194.00,99.93
3193.00,99.93
3192.00,99.93
3191.00,99.93
3190.00,99.93
3189.00,99.93
3188.00,99.93
3187.00,99.94
3186.00,99.94
3185.00,99.94
3184.00,99.94
3183.00,99.94
3182.00,99.94
3181.00,99.94
3180.00,99.93
3179.00,99.93
3178.00,99.93
3177.00,99.93
3176.00,99.93
3175.00,99.93
3174.00,99.93
3173.00,99.93
3172.00,99.93
3171.00,99.93
3170.00,99.94
3169.00,99.94
3168.00,99.94
3167.00,99.94
3166.00,99.94
3165.00,99.93
3164.00,99.93
3163.00,99.93
3162.00,99.93
3161.00,99.93
3160.00,99.93
3159.00,99.93
3158.00,99.94
3157.00,99.94
3156.00,99.94
3155.00,99.94
3154.00,99.94
3153.00,99.94
3152.00,99.94
3151.00,99.93
3150.00,99.93
3149.00,99.93
3148.00,99.93
3147.00,99.93
3146.00,99.93
3145.00,99.93
3144.00,99.93
3143.00,99.93
3142.00,99.93
3141.00,99.93
3140.00,99.93
3139.00,99.93
3138.00,99.93
3137.00,99.93
3136.00,99.93
3135.00,99.93
3134.00,99.93
3133.00,99.93
3132.00,99.93
3131.00,99.93
3130.00,99.93
3129.00,99.93
3128.00,99.93
3127.00,99.93
3126.00,99.93
3125.00,99.93
3124.00,99.93
3123.00,99.93
3122.00,99.93
3121.00,99.93
3120.00,99.93
3119.00,99.93
3118.00,99.93
3117.00,99.93
3116.00,99.93
3115.00,99.93
3114.00,99.93
3113.00,99.93
3112.00,99.93
3111.00,99.94
3110.00,99.94
3109.00,99.94
3108.00,99.94
3107.00,99.94
3106.00,99.94
3105.00,99.93
3104.00,99.93
3103.00,99.93
3102.00,99.93
3101.00,99.93
3100.00,99.93
3099.00,99.93
3098.00,99.93
3097.00,99.93
3096.00,99.93
3095.00,99.93
3094.00,99.93
3093.00,99.93
3092.00,99.93
3091.00,99.93
3090.00,99.94
3089.00,99.94
3088.00,99.94
3087.00,99.94
3086.00,99.94
3085.00,99.94
3084.00,99.93
3083.00,99.93
3082.00,99.93
3081.00,99.93
3080.00,99.93
3079.00,99.92
3078.00,99.92
3077.00,99.92
3076.00,99.93
3075.00,99.93
3074.00,99.93
3073.00,99.93
3072.00,99.93
3071.00,99.93
3070.00,99.94
3069.00,99.94
3068.00,99.94
3067.00,99.93
3066.00,99.93
3065.00,99.92
3064.00,99.92
3063.00,99.93
3062.00,99.93
3061.00,99.93
3060.00,99.93
3059.00,99.93
3058.00,99.93
3057.00,99.93
3056.00,99.93
3055.00,99.93
3054.00,99.93
3053.00,99.93
3052.00,99.92
3051.00,99.92
3050.00,99.92
3049.00,99.92
3048.00,99.92
3047.00,99.92
3046.00,99.92
3045.00,99.92
3044.00,99.92
3043.00,99.92
3042.00,99.92
3041.00,99.92
3040.00,99.92
3039.00,99.92
3038.00,99.91
3037.00,99.91
3036.00,99.91
3035.00,99.91
3034.00,99.91
3033.00,99.91
3032.00,99.91
3031.00,99.91
3030.00,99.91
3029.00,99.91
3028.00,99.91
3027.00,99.91
3026.00,99.91
3025.00,99.91
3024.00,99.91
3023.00,99.91
3022.00,99.91
3021.00,99.91
3020.00,99.91
3019.00,99.91
3018.00,99.90
3017.00,99.90
3016.00,99.90
3015.00,99.90
3014.00,99.89
3013.00,99.89
3012.00,99.89
3011.00,99.88
3010.00,99.88
3009.00,99.87
3008.00,99.87
3007.00,99.87
3006.00,99.87
3005.00,99.86
3004.00,99.86
3003.00,99.85
3002.00,99.84
3001.00,99.84
3000.00,99.83
2999.00,99.82
2998.00,99.81
2997.00,99.80
2996.00,99.79
2995.00,99.79
2994.00,99.78
2993.00,99.77
2992.00,99.75
2991.00,99.74
2990.00,99.72
2989.00,99.71
2988.00,99.69
2987.00,99.67
2986.00,99.64
2985.00,99.61
2984.00,99.58
2983.00,99.55
2982.00,99.51
2981.00,99.47
2980.00,99.42
2979.00,99.37
2978.00,99.31
2977.00,99.25
2976.00,99.17
2975.00,99.09
2974.00,99.00
2973.00,98.90
2972.00,98.79
2971.00,98.66
2970.00,98.53
2969.00,98.39
2968.00,98.24
2967.00,98.08
2966.00,97.92
2965.00,97.76
2964.00,97.61
2963.00,97.48
2962.00,97.35
2961.00,97.25
2960.00,97.16
2959.00,97.08
2958.00,97.01
2957.00,96.93
2956.00,96.84
2955.00,96.75
2954.00,96.65
2953.00,96.55
2952.00,96.48
2951.00,96.44
2950.00,96.45
2949.00,96.51
2948.00,96.64
2947.00,96.82
2946.00,97.03
2945.00,97.26
2944.00,97.48
2943.00,97.67
2942.00,97.83
2941.00,97.94
2940.00,98.00
2939.00,98.03
2938.00,98.02
2937.00,97.97
2936.00,97.90
2935.00,97.80
2934.00,97.68
2933.00,97.54
2932.00,97.38
2931.00,97.21
2930.00,97.05
2929.00,96.88
2928.00,96.72
2927.00,96.57
2926.00,96.42
2925.00,96.29
2924.00,96.16
2923.00,96.03
2922.00,95.91
2921.00,95.80
2920.00,95.71
2919.00,95.64
2918.00,95.62
2917.00,95.63
2916.00,95.69
2915.00,95.78
2914.00,95.89
2913.00,96.01
2912.00,96.14
2911.00,96.26
2910.00,96.37
2909.00,96.48
2908.00,96.58
2907.00,96.68
2906.00,96.79
2905.00,96.89
2904.00,97.00
2903.00,97.11
2902.00,97.22
2901.00,97.33
2900.00,97.44
2899.00,97.54
2898.00,97.63
2897.00,97.72
2896.00,97.79
2895.00,97.85
2894.00,97.90
2893.00,97.94
2892.00,97.97
2891.00,97.99
2890.00,97.99
2889.00,97.99
2888.00,97.99
2887.00,97.97
2886.00,97.95
2885.00,97.92
2884.00,97.89
2883.00,97.85
2882.00,97.80
2881.00,97.75
2880.00,97.69
2879.00,97.65
2878.00,97.62
2877.00,97.61
2876.00,97.62
2875.00,97.63
2874.00,97.64
2873.00,97.64
2872.00,97.64
2871.00,97.62
2870.00,97.59
2869.00,97.57
2868.00,97.57
2867.00,97.61
2866.00,97.68
2865.00,97.80
2864.00,97.97
2863.00,98.15
2862.00,98.34
2861.00,98.52
2860.00,98.67
2859.00,98.78
2858.00,98.87
2857.00,98.94
2856.00,98.98
2855.00,99.00
2854.00,99.01
2853.00,98.99
2852.00,98.96
2851.00,98.92
2850.00,98.86
2849.00,98.79
2848.00,98.70
2847.00,98.60
2846.00,98.49
2845.00,98.36
2844.00,98.23
2843.00,98.09
2842.00,97.95
2841.00,97.83
2840.00,97.73
2839.00,97.68
2838.00,97.66
2837.00,97.71
2836.00,97.80
2835.00,97.95
2834.00,98.13
2833.00,98.32
2832.00,98.51
2831.00,98.68
2830.00,98.83
2829.00,98.95
2828.00,99.05
2827.00,99.13
2826.00,99.20
2825.00,99.25
2824.00,99.30
2823.00,99.34
2822.00,99.37
2821.00,99.40
2820.00,99.42
2819.00,99.44
2818.00,99.46
2817.00,99.47
2816.00,99.48
2815.00,99.50
2814.00,99.51
2813.00,99.52
2812.00,99.54
2811.00,99.54
2810.00,99.55
2809.00,99.56
2808.00,99.57
2807.00,99.59
2806.00,99.60
2805.00,99.62
2804.00,99.63
2803.00,99.64
2802.00,99.65
2801.00,99.66
2800.00,99.67
2799.00,99.68
2798.00,99.68
2797.00,99.69
2796.00,99.69
2795.00,99.69
2794.00,99.70
2793.00,99.70
2792.00,99.71
2791.00,99.72
2790.00,99.73
2789.00,99.73
2788.00,99.74
2787.00,99.74
2786.00,99.75
2785.00,99.76
2784.00,99.76
2783.00,99.76
2782.00,99.77
2781.00,99.77
2780.00,99.78
2779.00,99.78
2778.00,99.79
2777.00,99.79
2776.00,99.79
2775.00,99.79
2774.00,99.79
2773.00,99.80
2772.00,99.80
2771.00,99.80
2770.00,99.80
2769.00,99.80
2768.00,99.80
2767.00,99.80
2766.00,99.80
2765.00,99.80
2764.00,99.80
2763.00,99.80
2762.00,99.80
2761.00,99.80
2760.00,99.80
2759.00,99.80
2758.00,99.80
2757.00,99.81
2756.00,99.81
2755.00,99.81
2754.00,99.82
2753.00,99.82
2752.00,99.82
2751.00,99.82
2750.00,99.81
2749.00,99.81
2748.00,99.81
2747.00,99.81
2746.00,99.81
2745.00,99.81
2744.00,99.81
2743.00,99.81
2742.00,99.80
2741.00,99.80
2740.00,99.80
2739.00,99.80
2738.00,99.79
2737.00,99.79
2736.00,99.79
2735.00,99.79
2734.00,99.78
2733.00,99.78
2732.00,99.77
2731.00,99.77
2730.00,99.76
2729.00,99.76
2728.00,99.76
2727.00,99.75
2726.00,99.75
2725.00,99.74
2724.00,99.73
2723.00,99.73
2722.00,99.73
2721.00,99.74
2720.00,99.75
2719.00,99.76
2718.00,99.76
2717.00,99.77
2716.00,99.78
2715.00,99.78
2714.00,99.79
2713.00,99.79
2712.00,99.80
2711.00,99.80
2710.00,99.81
2709.00,99.81
2708.00,99.81
2707.00,99.81
2706.00,99.82
2705.00,99.82
2704.00,99.82
2703.00,99.82
2702.00,99.82
2701.00,99.82
2700.00,99.82
2699.00,99.83
2698.00,99.83
2697.00,99.83
2696.00,99.83
2695.00,99.83
2694.00,99.83
2693.00,99.83
2692.00,99.83
2691.00,99.83
2690.00,99.83
2689.00,99.83
2688.00,99.83
2687.00,99.83
2686.00,99.84
2685.00,99.83
2684.00,99.83
2683.00,99.83
2682.00,99.83
2681.00,99.83
2680.00,99.83
2679.00,99.84
2678.00,99.84
2677.00,99.84
2676.00,99.84
2675.00,99.83
2674.00,99.83
2673.00,99.83
2672.00,99.83
2671.00,99.84
2670.00,99.84
2669.00,99.84
2668.00,99.83
2667.00,99.83
2666.00,99.82
2665.00,99.82
2664.00,99.81
2663.00,99.81
2662.00,99.80
2661.00,99.80
2660.00,99.80
2659.00,99.79
2658.00,99.79
2657.00,99.79
2656.00,99.79
2655.00,99.78
2654.00,99.78
2653.00,99.78
2652.00,99.78
2651.00,99.78
2650.00,99.78
2649.00,99.78
2648.00,99.78
2647.00,99.78
2646.00,99.78
2645.00,99.78
2644.00,99.78
2643.00,99.78
2642.00,99.78
2641.00,99.78
2640.00,99.78
2639.00,99.78
2638.00,99.78
2637.00,99.78
2636.00,99.78
2635.00,99.78
2634.00,99.78
2633.00,99.78
2632.00,99.79
2631.00,99.79
2630.00,99.79
2629.00,99.79
2628.00,99.79
2627.00,99.79
2626.00,99.79
2625.00,99.79
2624.00,99.79
2623.00,99.79
2622.00,99.79
2621.00,99.79
2620.00,99.79
2619.00,99.79
2618.00,99.79
2617.00,99.79
2616.00,99.79
2615.00,99.78
2614.00,99.78
2613.00,99.78
2612.00,99.78
2611.00,99.79
2610.00,99.79
2609.00,99.80
2608.00,99.80
2607.00,99.81
2606.00,99.81
2605.00,99.81
2604.00,99.80
2603.00,99.80
2602.00,99.80
2601.00,99.80
2600.00,99.80
2599.00,99.81
2598.00,99.81
2597.00,99.81
2596.00,99.81
2595.00,99.81
2594.00,99.81
2593.00,99.81
2592.00,99.80
2591.00,99.80
2590.00,99.80
2589.00,99.80
2588.00,99.80
2587.00,99.80
2586.00,99.80
2585.00,99.79
2584.00,99.79
2583.00,99.79
2582.00,99.79
2581.00,99.80
2580.00,99.80
2579.00,99.80
2578.00,99.80
2577.00,99.80
2576.00,99.81
2575.00,99.82
2574.00,99.82
2573.00,99.82
2572.00,99.82
2571.00,99.82
2570.00,99.82
2569.00,99.83
2568.00,99.83
2567.00,99.83
2566.00,99.83
2565.00,99.83
2564.00,99.83
2563.00,99.83
2562.00,99.83
2561.00,99.83
2560.00,99.83
2559.00,99.83
2558.00,99.84
2557.00,99.84
2556.00,99.84
2555.00,99.84
2554.00,99.85
2553.00,99.85
2552.00,99.85
2551.00,99.85
2550.00,99.85
2549.00,99.85
2548.00,99.85
2547.00,99.85
2546.00,99.85
2545.00,99.85
2544.00,99.86
2543.00,99.87
2542.00,99.87
2541.00,99.87
2540.00,99.87
2539.00,99.87
2538.00,99.87
2537.00,99.87
2536.00,99.87
2535.00,99.87
2534.00,99.88
2533.00,99.87
2532.00,99.87
2531.00,99.87
2530.00,99.87
2529.00,99.87
2528.00,99.87
2527.00,99.86
2526.00,99.85
2525.00,99.85
2524.00,99.85
2523.00,99.85
2522.00,99.86
2521.00,99.86
2520.00,99.86
2519.00,99.87
2518.00,99.87
2517.00,99.88
2516.00,99.88
2515.00,99.88
2514.00,99.88
2513.00,99.88
2512.00,99.88
2511.00,99.89
2510.00,99.89
2509.00,99.89
2508.00,99.89
2507.00,99.89
2506.00,99.88
2505.00,99.88
2504.00,99.88
2503.00,99.89
2502.00,99.89
2501.00,99.89
2500.00,99.89
2499.00,99.89
2498.00,99.89
2497.00,99.89
2496.00,99.89
2495.00,99.89
2494.00,99.89
2493.00,99.89
2492.00,99.88
2491.00,99.88
2490.00,99.88
2489.00,99.88
2488.00,99.89
2487.00,99.89
2486.00,99.89
2485.00,99.89
2484.00,99.89
2483.00,99.89
2482.00,99.89
2481.00,99.89
2480.00,99.89
2479.00,99.89
2478.00,99.89
2477.00,99.89
2476.00,99.89
2475.00,99.89
2474.00,99.89
2473.00,99.88
2472.00,99.88
2471.00,99.88
2470.00,99.88
2469.00,99.88
2468.00,99.89
2467.00,99.89
2466.00,99.89
2465.00,99.89
2464.00,99.89
2463.00,99.88
2462.00,99.88
2461.00,99.88
2460.00,99.87
2459.00,99.88
2458.00,99.88
2457.00,99.87
2456.00,99.87
2455.00,99.87
2454.00,99.87
2453.00,99.87
2452.00,99.86
2451.00,99.86
2450.00,99.86
2449.00,99.86
2448.00,99.86
2447.00,99.86
2446.00,99.86
2445.00,99.86
2444.00,99.87
2443.00,99.87
2442.00,99.87
2441.00,99.88
2440.00,99.87
2439.00,99.87
2438.00,99.87
2437.00,99.88
2436.00,99.88
2435.00,99.88
2434.00,99.87
2433.00,99.87
2432.00,99.87
2431.00,99.87
2430.00,99.88
2429.00,99.88
2428.00,99.89
2427.00,99.89
2426.00,99.89
2425.00,99.89
2424.00,99.90
2423.00,99.90
2422.00,99.90
2421.00,99.90
2420.00,99.89
2419.00,99.89
2418.00,99.89
2417.00,99.89
2416.00,99.89
2415.00,99.89
2414.00,99.89
2413.00,99.89
2412.00,99.89
2411.00,99.88
2410.00,99.88
2409.00,99.89
2408.00,99.89
2407.00,99.90
2406.00,99.91
2405.00,99.91
2404.00,99.91
2403.00,99.92
2402.00,99.92
2401.00,99.92
2400.00,99.92
2399.00,99.92
2398.00,99.92
2397.00,99.92
2396.00,99.92
2395.00,99.92
2394.00,99.92
2393.00,99.92
2392.00,99.92
2391.00,99.92
2390.00,99.92
2389.00,99.92
2388.00,99.92
2387.00,99.92
2386.00,99.93
2385.00,99.93
2384.00,99.94
2383.00,99.94
2382.00,99.95
2381.00,99.96
2380.00,99.98
2379.00,99.99
2378.00,99.99
2377.00,100.00
2376.00,100.00
2375.00,100.00
2374.00,100.00
2373.00,100.00
2372.00,99.99
2371.00,99.99
2370.00,99.99
2369.00,99.99
2368.00,100.00
2367.00,100.01
2366.00,100.01
2365.00,100.00
2364.00,100.00
2363.00,100.00
2362.00,99.99
2361.00,99.99
2360.00,99.98
2359.00,99.97
2358.00,99.98
2357.00,99.99
2356.00,99.99
2355.00,99.99
2354.00,99.99
2353.00,99.98
2352.00,99.98
2351.00,99.98
2350.00,99.98
2349.00,99.98
2348.00,99.98
2347.00,99.98
2346.00,99.99
2345.00,99.99
2344.00,99.97
2343.00,99.96
2342.00,99.95
2341.00,99.94
2340.00,99.94
2339.00,99.94
2338.00,99.94
2337.00,99.94
2336.00,99.93
2335.00,99.92
2334.00,99.92
2333.00,99.92
2332.00,99.93
2331.00,99.93
2330.00,99.92
2329.00,99.91
2328.00,99.89
2327.00,99.86
2326.00,99.83
2325.00,99.79
2324.00,99.77
2323.00,99.77
2322.00,99.78
2321.00,99.80
2320.00,99.81
2319.00,99.82
2318.00,99.83
2317.00,99.83
2316.00,99.83
2315.00,99.84
2314.00,99.84
2313.00,99.85
2312.00,99.86
2311.00,99.86
2310.00,99.86
2309.00,99.85
2308.00,99.85
2307.00,99.84
2306.00,99.83
2305.00,99.83
2304.00,99.83
2303.00,99.83
2302.00,99.83
2301.00,99.82
2300.00,99.82
2299.00,99.81
2298.00,99.81
2297.00,99.80
2296.00,99.80
2295.00,99.79
2294.00,99.79
2293.00,99.78
2292.00,99.77
2291.00,99.76
2290.00,99.74
2289.00,99.73
2288.00,99.72
2287.00,99.71
2286.00,99.71
2285.00,99.71
2284.00,99.71
2283.00,99.72
2282.00,99.73
2281.00,99.74
2280.00,99.75
2279.00,99.75
2278.00,99.75
2277.00,99.74
2276.00,99.74
2275.00,99.74
2274.00,99.75
2273.00,99.75
2272.00,99.76
2271.00,99.76
2270.00,99.75
2269.00,99.75
2268.00,99.76
2267.00,99.76
2266.00,99.77
2265.00,99.78
2264.00,99.78
2263.00,99.78
2262.00,99.78
2261.00,99.77
2260.00,99.77
2259.00,99.76
2258.00,99.76
2257.00,99.76
2256.00,99.76
2255.00,99.77
2254.00,99.79
2253.00,99.79
2252.00,99.79
2251.00,99.79
2250.00,99.78
2249.00,99.78
2248.00,99.78
2247.00,99.79
2246.00,99.79
2245.00,99.79
2244.00,99.78
2243.00,99.77
2242.00,99.76
2241.00,99.75
2240.00,99.75
2239.00,99.75
2238.00,99.75
2237.00,99.75
2236.00,99.75
2235.00,99.76
2234.00,99.76
2233.00,99.77
2232.00,99.77
2231.00,99.77
2230.00,99.76
2229.00,99.76
2228.00,99.75
2227.00,99.75
2226.00,99.76
2225.00,99.77
2224.00,99.77
2223.00,99.76
2222.00,99.76
2221.00,99.76
2220.00,99.75
2219.00,99.75
2218.00,99.75
2217.00,99.75
2216.00,99.75
2215.00,99.75
2214.00,99.75
2213.00,99.75
2212.00,99.75
2211.00,99.75
2210.00,99.75
2209.00,99.75
2208.00,99.75
2207.00,99.75
2206.00,99.74
2205.00,99.74
2204.00,99.74
2203.00,99.74
2202.00,99.73
2201.00,99.73
2200.00,99.72
2199.00,99.73
2198.00,99.73
2197.00,99.74
2196.00,99.74
2195.00,99.74
2194.00,99.74
2193.00,99.74
2192.00,99.73
2191.00,99.73
2190.00,99.72
2189.00,99.71
2188.00,99.70
2187.00,99.69
2186.00,99.68
2185.00,99.67
2184.00,99.68
2183.00,99.70
2182.00,99.72
2181.00,99.73
2180.00,99.73
2179.00,99.70
2178.00,99.68
2177.00,99.67
2176.00,99.69
2175.00,99.71
2174.00,99.73
2173.00,99.73
2172.00,99.72
2171.00,99.71
2170.00,99.69
2169.00,99.67
2168.00,99.65
2167.00,99.63
2166.00,99.62
2165.00,99.61
2164.00,99.60
2163.00,99.58
2162.00,99.57
2161.00,99.59
2160.00,99.66
2159.00,99.78
2158.00,99.90
2157.00,99.99
2156.00,100.01
2155.00,100.00
2154.00,99.99
2153.00,99.97
2152.00,99.96
2151.00,99.95
2150.00,99.94
2149.00,99.93
2148.00,99.93
2147.00,99.93
2146.00,99.94
2145.00,99.94
2144.00,99.94
2143.00,99.94
2142.00,99.94
2141.00,99.94
2140.00,99.94
2139.00,99.94
2138.00,99.94
2137.00,99.95
2136.00,99.97
2135.00,99.99
2134.00,100.01
2133.00,100.03
2132.00,100.03
2131.00,100.02
2130.00,100.00
2129.00,99.98
2128.00,99.97
2127.00,99.96
2126.00,99.95
2125.00,99.94
2124.00,99.92
2123.00,99.91
2122.00,99.90
2121.00,99.89
2120.00,99.87
2119.00,99.86
2118.00,99.84
2117.00,99.83
2116.00,99.81
2115.00,99.80
2114.00,99.80
2113.00,99.79
2112.00,99.79
2111.00,99.79
2110.00,99.79
2109.00,99.79
2108.00,99.79
2107.00,99.79
2106.00,99.79
2105.00,99.79
2104.00,99.80
2103.00,99.81
2102.00,99.81
2101.00,99.81
2100.00,99.81
2099.00,99.80
2098.00,99.79
2097.00,99.80
2096.00,99.82
2095.00,99.85
2094.00,99.86
2093.00,99.87
2092.00,99.86
2091.00,99.84
2090.00,99.82
2089.00,99.80
2088.00,99.79
2087.00,99.79
2086.00,99.79
2085.00,99.78
2084.00,99.78
2083.00,99.77
2082.00,99.77
2081.00,99.76
2080.00,99.75
2079.00,99.74
2078.00,99.74
2077.00,99.74
2076.00,99.74
2075.00,99.75
2074.00,99.76
2073.00,99.76
2072.00,99.76
2071.00,99.76
2070.00,99.77
2069.00,99.77
2068.00,99.78
2067.00,99.78
2066.00,99.77
2065.00,99.76
2064.00,99.76
2063.00,99.76
2062.00,99.76
2061.00,99.76
2060.00,99.75
2059.00,99.75
2058.00,99.74
2057.00,99.73
2056.00,99.73
2055.00,99.72
2054.00,99.72
2053.00,99.70
2052.00,99.67
2051.00,99.63
2050.00,99.62
2049.00,99.64
2048.00,99.66
2047.00,99.68
2046.00,99.68
2045.00,99.68
2044.00,99.67
2043.00,99.65
2042.00,99.65
2041.00,99.65
2040.00,99.66
2039.00,99.66
2038.00,99.66
2037.00,99.66
2036.00,99.65
2035.00,99.65
2034.00,99.65
2033.00,99.66
2032.00,99.67
2031.00,99.69
2030.00,99.70
2029.00,99.72
2028.00,99.74
2027.00,99.75
2026.00,99.75
2025.00,99.73
2024.00,99.71
2023.00,99.70
2022.00,99.71
2021.00,99.74
2020.00,99.77
2019.00,99.79
2018.00,99.79
2017.00,99.78
2016.00,99.77
2015.00,99.77
2014.00,99.78
2013.00,99.79
2012.00,99.79
2011.00,99.78
2010.00,99.77
2009.00,99.77
2008.00,99.77
2007.00,99.78
2006.00,99.80
2005.00,99.81
2004.00,99.82
2003.00,99.82
2002.00,99.82
2001.00,99.81
2000.00,99.81
1999.00,99.79
1998.00,99.77
1997.00,99.75
1996.00,99.73
1995.00,99.71
1994.00,99.71
1993.00,99.71
1992.00,99.72
1991.00,99.73
1990.00,99.73
1989.00,99.71
1988.00,99.70
1987.00,99.69
1986.00,99.68
1985.00,99.68
1984.00,99.67
1983.00,99.65
1982.00,99.60
1981.00,99.55
1980.00,99.52
1979.00,99.52
1978.00,99.57
1977.00,99.65
1976.00,99.73
1975.00,99.78
1974.00,99.81
1973.00,99.81
1972.00,99.82
1971.00,99.82
1970.00,99.82
1969.00,99.82
1968.00,99.81
1967.00,99.81
1966.00,99.81
1965.00,99.82
1964.00,99.82
1963.00,99.83
1962.00,99.84
1961.00,99.86
1960.00,99.88
1959.00,99.91
1958.00,99.92
1957.00,99.92
1956.00,99.91
1955.00,99.89
1954.00,99.88
1953.00,99.87
1952.00,99.88
1951.00,99.89
1950.00,99.89
1949.00,99.89
1948.00,99.88
1947.00,99.88
1946.00,99.88
1945.00,99.88
1944.00,99.89
1943.00,99.90
1942.00,99.90
1941.00,99.89
1940.00,99.88
1939.00,99.87
1938.00,99.86
1937.00,99.86
1936.00,99.86
1935.00,99.86
1934.00,99.87
1933.00,99.87
1932.00,99.88
1931.00,99.89
1930.00,99.89
1929.00,99.90
1928.00,99.90
1927.00,99.91
1926.00,99.90
1925.00,99.90
1924.00,99.89
1923.00,99.88
1922.00,99.88
1921.00,99.88
1920.00,99.88
1919.00,99.88
1918.00,99.88
1917.00,99.88
1916.00,99.88
1915.00,99.88
1914.00,99.88
1913.00,99.88
1912.00,99.88
1911.00,99.88
1910.00,99.87
1909.00,99.88
1908.00,99.88
1907.00,99.89
1906.00,99.89
1905.00,99.89
1904.00,99.89
1903.00,99.89
1902.00,99.88
1901.00,99.88
1900.00,99.87
1899.00,99.87
1898.00,99.86
1897.00,99.86
1896.00,99.87
1895.00,99.87
1894.00,99.87
1893.00,99.87
1892.00,99.87
1891.00,99.88
1890.00,99.88
1889.00,99.88
1888.00,99.88
1887.00,99.88
1886.00,99.88
1885.00,99.88
1884.00,99.88
1883.00,99.87
1882.00,99.87
1881.00,99.87
1880.00,99.88
1879.00,99.88
1878.00,99.88
1877.00,99.88
1876.00,99.88
1875.00,99.89
1874.00,99.89
1873.00,99.89
1872.00,99.89
1871.00,99.89
1870.00,99.89
1869.00,99.89
1868.00,99.89
1867.00,99.88
1866.00,99.88
1865.00,99.88
1864.00,99.87
1863.00,99.87
1862.00,99.87
1861.00,99.87
1860.00,99.87
1859.00,99.88
1858.00,99.88
1857.00,99.88
1856.00,99.88
1855.00,99.88
1854.00,99.88
1853.00,99.88
1852.00,99.88
1851.00,99.88
1850.00,99.89
1849.00,99.89
1848.00,99.90
1847.00,99.89
1846.00,99.89
1845.00,99.89
1844.00,99.88
1843.00,99.88
1842.00,99.88
1841.00,99.89
1840.00,99.90
1839.00,99.90
1838.00,99.90
1837.00,99.89
1836.00,99.89
1835.00,99.88
1834.00,99.88
1833.00,99.87
1832.00,99.87
1831.00,99.88
1830.00,99.88
1829.00,99.89
1828.00,99.89
1827.00,99.89
1826.00,99.89
1825.00,99.88
1824.00,99.88
1823.00,99.88
1822.00,99.88
1821.00,99.88
1820.00,99.89
1819.00,99.90
1818.00,99.91
1817.00,99.92
1816.00,99.92
1815.00,99.91
1814.00,99.90
1813.00,99.90
1812.00,99.89
1811.00,99.89
1810.00,99.89
1809.00,99.89
1808.00,99.89
1807.00,99.88
1806.00,99.88
1805.00,99.88
1804.00,99.88
1803.00,99.88
1802.00,99.88
1801.00,99.88
1800.00,99.87
1799.00,99.87
1798.00,99.86
1797.00,99.86
1796.00,99.86
1795.00,99.87
1794.00,99.87
1793.00,99.88
1792.00,99.88
1791.00,99.87
1790.00,99.87
1789.00,99.87
1788.00,99.87
1787.00,99.87
1786.00,99.87
1785.00,99.87
1784.00,99.87
1783.00,99.87
1782.00,99.87
1781.00,99.87
1780.00,99.87
1779.00,99.88
1778.00,99.88
1777.00,99.88
1776.00,99.88
1775.00,99.87
1774.00,99.87
1773.00,99.87
1772.00,99.87
1771.00,99.87
1770.00,99.87
1769.00,99.87
1768.00,99.87
1767.00,99.87
1766.00,99.87
1765.00,99.87
1764.00,99.87
1763.00,99.87
1762.00,99.86
1761.00,99.86
1760.00,99.86
1759.00,99.86
1758.00,99.86
1757.00,99.86
1756.00,99.86
1755.00,99.86
1754.00,99.86
1753.00,99.86
1752.00,99.86
1751.00,99.86
1750.00,99.86
1749.00,99.86
1748.00,99.86
1747.00,99.86
1746.00,99.86
1745.00,99.86
1744.00,99.86
1743.00,99.86
1742.00,99.86
1741.00,99.86
1740.00,99.86
1739.00,99.86
1738.00,99.85
1737.00,99.85
1736.00,99.85
1735.00,99.85
1734.00,99.85
1733.00,99.85
1732.00,99.85
1731.00,99.85
1730.00,99.85
1729.00,99.85
1728.00,99.85
1727.00,99.84
1726.00,99.84
1725.00,99.85
1724.00,99.85
1723.00,99.85
1722.00,99.85
1721.00,99.85
1720.00,99.85
1719.00,99.85
1718.00,99.86
1717.00,99.86
1716.00,99.86
1715.00,99.85
1714.00,99.85
1713.00,99.84
1712.00,99.84
1711.00,99.83
1710.00,99.83
1709.00,99.83
1708.00,99.83
1707.00,99.83
1706.00,99.83
1705.00,99.83
1704.00,99.83
1703.00,99.84
1702.00,99.84
1701.00,99.84
1700.00,99.84
1699.00,99.84
1698.00,99.84
1697.00,99.83
1696.00,99.83
1695.00,99.83
1694.00,99.83
1693.00,99.83
1692.00,99.83
1691.00,99.83
1690.00,99.83
1689.00,99.83
1688.00,99.83
1687.00,99.83
1686.00,99.83
1685.00,99.83
1684.00,99.83
1683.00,99.83
1682.00,99.83
1681.00,99.83
1680.00,99.83
1679.00,99.83
1678.00,99.83
1677.00,99.83
1676.00,99.83
1675.00,99.83
1674.00,99.82
1673.00,99.82
1672.00,99.82
1671.00,99.81
1670.00,99.81
1669.00,99.82
1668.00,99.82
1667.00,99.83
1666.00,99.83
1665.00,99.83
1664.00,99.82
1663.00,99.82
1662.00,99.82
1661.00,99.81
1660.00,99.81
1659.00,99.81
1658.00,99.81
1657.00,99.81
1656.00,99.81
1655.00,99.81
1654.00,99.81
1653.00,99.81
1652.00,99.81
1651.00,99.80
1650.00,99.80
1649.00,99.79
1648.00,99.79
1647.00,99.80
1646.00,99.80
1645.00,99.81
1644.00,99.81
1643.00,99.81
1642.00,99.81
1641.00,99.81
1640.00,99.81
1639.00,99.81
1638.00,99.81
1637.00,99.82
1636.00,99.82
1635.00,99.82
1634.00,99.82
1633.00,99.82
1632.00,99.82
1631.00,99.82
1630.00,99.82
1629.00,99.82
1628.00,99.81
1627.00,99.81
1626.00,99.80
1625.00,99.80
1624.00,99.80
1623.00,99.80
1622.00,99.80
1621.00,99.81
1620.00,99.81
1619.00,99.81
1618.00,99.82
1617.00,99.82
1616.00,99.82
1615.00,99.82
1614.00,99.81
1613.00,99.81
1612.00,99.81
1611.00,99.81
1610.00,99.81
1609.00,99.81
1608.00,99.81
1607.00,99.82
1606.00,99.82
1605.00,99.82
1604.00,99.81
1603.00,99.81
1602.00,99.81
1601.00,99.82
1600.00,99.82
1599.00,99.82
1598.00,99.82
1597.00,99.82
1596.00,99.82
1595.00,99.82
1594.00,99.82
1593.00,99.82
1592.00,99.82
1591.00,99.82
1590.00,99.81
1589.00,99.81
1588.00,99.81
1587.00,99.81
1586.00,99.82
1585.00,99.82
1584.00,99.82
1583.00,99.81
1582.00,99.81
1581.00,99.81
1580.00,99.81
1579.00,99.81
1578.00,99.81
1577.00,99.81
1576.00,99.81
1575.00,99.80
1574.00,99.80
1573.00,99.81
1572.00,99.81
1571.00,99.81
1570.00,99.81
1569.00,99.81
1568.00,99.81
1567.00,99.81
1566.00,99.80
1565.00,99.80
1564.00,99.80
1563.00,99.80
1562.00,99.80
1561.00,99.79
1560.00,99.79
1559.00,99.79
1558.00,99.80
1557.00,99.80
1556.00,99.80
1555.00,99.80
1554.00,99.80
1553.00,99.80
1552.00,99.80
1551.00,99.80
1550.00,99.80
1549.00,99.80
1548.00,99.79
1547.00,99.79
1546.00,99.79
1545.00,99.79
1544.00,99.80
1543.00,99.80
1542.00,99.80
1541.00,99.80
1540.00,99.80
1539.00,99.81
1538.00,99.81
1537.00,99.80
1536.00,99.80
1535.00,99.79
1534.00,99.79
1533.00,99.80
1532.00,99.80
1531.00,99.80
1530.00,99.80
1529.00,99.80
1528.00,99.79
1527.00,99.79
1526.00,99.79
1525.00,99.79
1524.00,99.78
1523.00,99.78
1522.00,99.78
1521.00,99.78
1520.00,99.78
1519.00,99.78
1518.00,99.78
1517.00,99.78
1516.00,99.78
1515.00,99.78
1514.00,99.78
1513.00,99.77
1512.00,99.77
1511.00,99.77
1510.00,99.77
1509.00,99.76
1508.00,99.76
1507.00,99.76
1506.00,99.76
1505.00,99.76
1504.00,99.76
1503.00,99.75
1502.00,99.75
1501.00,99.75
1500.00,99.74
1499.00,99.74
1498.00,99.74
1497.00,99.73
1496.00,99.73
1495.00,99.72
1494.00,99.72
1493.00,99.72
1492.00,99.71
1491.00,99.71
1490.00,99.71
1489.00,99.70
1488.00,99.69
1487.00,99.68
1486.00,99.67
1485.00,99.66
1484.00,99.64
1483.00,99.63
1482.00,99.61
1481.00,99.58
1480.00,99.56
1479.00,99.53
1478.00,99.49
1477.00,99.45
1476.00,99.40
1475.00,99.35
1474.00,99.27
1473.00,99.15
1472.00,99.01
1471.00,98.87
1470.00,98.74
1469.00,98.61
1468.00,98.46
1467.00,98.30
1466.00,98.12
1465.00,97.91
1464.00,97.74
1463.00,97.62
1462.00,97.54
1461.00,97.49
1460.00,97.44
1459.00,97.41
1458.00,97.37
1457.00,97.34
1456.00,97.33
1455.00,97.33
1454.00,97.35
1453.00,97.38
1452.00,97.43
1451.00,97.50
1450.00,97.61
1449.00,97.76
1448.00,97.94
1447.00,98.14
1446.00,98.32
1445.00,98.48
1444.00,98.62
1443.00,98.73
1442.00,98.81
1441.00,98.86
1440.00,98.89
1439.00,98.90
1438.00,98.89
1437.00,98.89
1436.00,98.91
1435.00,98.97
1434.00,99.05
1433.00,99.14
1432.00,99.24
1431.00,99.33
1430.00,99.40
1429.00,99.46
1428.00,99.50
1427.00,99.52
1426.00,99.54
1425.00,99.56
1424.00,99.57
1423.00,99.58
1422.00,99.58
1421.00,99.59
1420.00,99.59
1419.00,99.60
1418.00,99.60
1417.00,99.61
1416.00,99.62
1415.00,99.62
1414.00,99.63
1413.00,99.63
1412.00,99.63
1411.00,99.62
1410.00,99.62
1409.00,99.62
1408.00,99.62
1407.00,99.62
1406.00,99.62
1405.00,99.62
1404.00,99.62
1403.00,99.62
1402.00,99.62
1401.00,99.62
1400.00,99.61
1399.00,99.61
1398.00,99.60
1397.00,99.60
1396.00,99.60
1395.00,99.59
1394.00,99.58
1393.00,99.57
1392.00,99.55
1391.00,99.53
1390.00,99.50
1389.00,99.47
1388.00,99.41
1387.00,99.33
1386.00,99.21
1385.00,99.06
1384.00,98.85
1383.00,98.57
1382.00,98.20
1381.00,97.75
1380.00,97.22
1379.00,96.67
1378.00,96.19
1377.00,95.88
1376.00,95.81
1375.00,96.02
1374.00,96.46
1373.00,96.99
1372.00,97.49
1371.00,97.92
1370.00,98.28
1369.00,98.56
1368.00,98.76
1367.00,98.89
1366.00,98.95
1365.00,98.97
1364.00,98.96
1363.00,98.92
1362.00,98.87
1361.00,98.83
1360.00,98.80
1359.00,98.80
1358.00,98.83
1357.00,98.89
1356.00,98.97
1355.00,99.06
1354.00,99.15
1353.00,99.23
1352.00,99.29
1351.00,99.34
1350.00,99.38
1349.00,99.42
1348.00,99.45
1347.00,99.47
1346.00,99.50
1345.00,99.51
1344.00,99.53
1343.00,99.54
1342.00,99.54
1341.00,99.55
1340.00,99.55
1339.00,99.55
1338.00,99.55
1337.00,99.55
1336.00,99.55
1335.00,99.55
1334.00,99.54
1333.00,99.53
1332.00,99.52
1331.00,99.51
1330.00,99.51
1329.00,99.52
1328.00,99.53
1327.00,99.54
1326.00,99.56
1325.00,99.57
1324.00,99.58
1323.00,99.59
1322.00,99.60
1321.00,99.61
1320.00,99.61
1319.00,99.62
1318.00,99.62
1317.00,99.62
1316.00,99.62
1315.00,99.63
1314.00,99.64
1313.00,99.64
1312.00,99.64
1311.00,99.64
1310.00,99.63
1309.00,99.61
1308.00,99.58
1307.00,99.56
1306.00,99.53
1305.00,99.51
1304.00,99.51
1303.00,99.51
1302.00,99.52
1301.00,99.53
1300.00,99.53
1299.00,99.53
1298.00,99.53
1297.00,99.53
1296.00,99.54
1295.00,99.55
1294.00,99.56
1293.00,99.57
1292.00,99.58
1291.00,99.59
1290.00,99.60
1289.00,99.61
1288.00,99.61
1287.00,99.62
1286.00,99.62
1285.00,99.63
1284.00,99.64
1283.00,99.64
1282.00,99.65
1281.00,99.65
1280.00,99.65
1279.00,99.66
1278.00,99.66
1277.00,99.66
1276.00,99.66
1275.00,99.66
1274.00,99.67
1273.00,99.67
1272.00,99.67
1271.00,99.67
1270.00,99.67
1269.00,99.67
1268.00,99.67
1267.00,99.67
1266.00,99.67
1265.00,99.67
1264.00,99.66
1263.00,99.66
1262.00,99.65
1261.00,99.64
1260.00,99.62
1259.00,99.60
1258.00,99.58
1257.00,99.57
1256.00,99.56
1255.00,99.56
1254.00,99.58
1253.00,99.60
1252.00,99.62
1251.00,99.64
1250.00,99.65
1249.00,99.66
1248.00,99.66
1247.00,99.67
1246.00,99.67
1245.00,99.68
1244.00,99.68
1243.00,99.69
1242.00,99.69
1241.00,99.69
1240.00,99.69
1239.00,99.69
1238.00,99.69
1237.00,99.70
1236.00,99.70
1235.00,99.70
1234.00,99.70
1233.00,99.69
1232.00,99.69
1231.00,99.69
1230.00,99.68
1229.00,99.68
1228.00,99.69
1227.00,99.68
1226.00,99.68
1225.00,99.67
1224.00,99.66
1223.00,99.66
1222.00,99.65
1221.00,99.65
1220.00,99.65
1219.00,99.65
1218.00,99.65
1217.00,99.66
1216.00,99.67
1215.00,99.67
1214.00,99.67
1213.00,99.67
1212.00,99.67
1211.00,99.67
1210.00,99.68
1209.00,99.68
1208.00,99.69
1207.00,99.70
1206.00,99.70
1205.00,99.70
1204.00,99.69
1203.00,99.69
1202.00,99.69
1201.00,99.70
1200.00,99.70
1199.00,99.70
1198.00,99.70
1197.00,99.70
1196.00,99.69
1195.00,99.69
1194.00,99.68
1193.00,99.69
1192.00,99.69
1191.00,99.70
1190.00,99.70
1189.00,99.70
1188.00,99.70
1187.00,99.70
1186.00,99.70
1185.00,99.69
1184.00,99.69
1183.00,99.68
1182.00,99.68
1181.00,99.67
1180.00,99.66
1179.00,99.64
1178.00,99.62
1177.00,99.59
1176.00,99.56
1175.00,99.51
1174.00,99.46
1173.00,99.39
1172.00,99.31
1171.00,99.24
1170.00,99.17
1169.00,99.12
1168.00,99.10
1167.00,99.10
1166.00,99.12
1165.00,99.15
1164.00,99.19
1163.00,99.22
1162.00,99.26
1161.00,99.28
1160.00,99.31
1159.00,99.33
1158.00,99.33
1157.00,99.34
1156.00,99.34
1155.00,99.34
1154.00,99.35
1153.00,99.36
1152.00,99.37
1151.00,99.39
1150.00,99.41
1149.00,99.44
1148.00,99.46
1147.00,99.48
1146.00,99.50
1145.00,99.52
1144.00,99.54
1143.00,99.57
1142.00,99.58
1141.00,99.60
1140.00,99.61
1139.00,99.62
1138.00,99.63
1137.00,99.64
1136.00,99.65
1135.00,99.66
1134.00,99.67
1133.00,99.67
1132.00,99.67
1131.00,99.67
1130.00,99.67
1129.00,99.67
1128.00,99.67
1127.00,99.67
1126.00,99.68
1125.00,99.68
1124.00,99.69
1123.00,99.69
1122.00,99.69
1121.00,99.68
1120.00,99.68
1119.00,99.67
1118.00,99.67
1117.00,99.67
1116.00,99.67
1115.00,99.67
1114.00,99.66
1113.00,99.66
1112.00,99.65
1111.00,99.64
1110.00,99.63
1109.00,99.61
1108.00,99.60
1107.00,99.59
1106.00,99.58
1105.00,99.56
1104.00,99.55
1103.00,99.55
1102.00,99.55
1101.00,99.56
1100.00,99.57
1099.00,99.58
1098.00,99.60
1097.00,99.61
1096.00,99.62
1095.00,99.63
1094.00,99.64
1093.00,99.64
1092.00,99.65
1091.00,99.65
1090.00,99.65
1089.00,99.66
1088.00,99.66
1087.00,99.67
1086.00,99.67
1085.00,99.67
1084.00,99.67
1083.00,99.67
1082.00,99.67
1081.00,99.67
1080.00,99.66
1079.00,99.66
1078.00,99.66
1077.00,99.67
1076.00,99.66
1075.00,99.66
1074.00,99.65
1073.00,99.65
1072.00,99.65
1071.00,99.65
1070.00,99.65
1069.00,99.66
1068.00,99.66
1067.00,99.67
1066.00,99.67
1065.00,99.67
1064.00,99.67
1063.00,99.67
1062.00,99.67
1061.00,99.67
1060.00,99.67
1059.00,99.66
1058.00,99.66
1057.00,99.66
1056.00,99.65
1055.00,99.65
1054.00,99.64
1053.00,99.64
1052.00,99.63
1051.00,99.63
1050.00,99.62
1049.00,99.61
1048.00,99.60
1047.00,99.60
1046.00,99.60
1045.00,99.60
1044.00,99.61
1043.00,99.60
1042.00,99.61
1041.00,99.61
1040.00,99.62
1039.00,99.62
1038.00,99.63
1037.00,99.63
1036.00,99.63
1035.00,99.63
1034.00,99.63
1033.00,99.63
1032.00,99.63
1031.00,99.63
1030.00,99.64
1029.00,99.64
1028.00,99.64
1027.00,99.65
1026.00,99.65
1025.00,99.65
1024.00,99.65
1023.00,99.64
1022.00,99.64
1021.00,99.63
1020.00,99.63
1019.00,99.63
1018.00,99.63
1017.00,99.62
1016.00,99.62
1015.00,99.61
1014.00,99.60
1013.00,99.60
1012.00,99.59
1011.00,99.59
1010.00,99.58
1009.00,99.57
1008.00,99.55
1007.00,99.53
1006.00,99.51
1005.00,99.47
1004.00,99.42
1003.00,99.35
1002.00,99.25
1001.00,99.14
1000.00,99.04
999.00,98.96
998.00,98.92
997.00,98.94
996.00,99.01
995.00,99.11
994.00,99.21
993.00,99.30
992.00,99.37
991.00,99.43
990.00,99.46
989.00,99.49
988.00,99.51
987.00,99.51
986.00,99.52
985.00,99.51
984.00,99.50
983.00,99.49
982.00,99.45
981.00,99.40
980.00,99.32
979.00,99.22
978.00,99.11
977.00,98.98
976.00,98.86
975.00,98.75
974.00,98.68
973.00,98.67
972.00,98.73
971.00,98.84
970.00,98.98
969.00,99.11
968.00,99.22
967.00,99.30
966.00,99.35
965.00,99.40
964.00,99.43
963.00,99.46
962.00,99.49
961.00,99.50
960.00,99.52
959.00,99.54
958.00,99.56
957.00,99.57
956.00,99.58
955.00,99.58
954.00,99.59
953.00,99.60
952.00,99.60
951.00,99.60
950.00,99.59
949.00,99.58
948.00,99.57
947.00,99.56
946.00,99.57
945.00,99.57
944.00,99.56
943.00,99.55
942.00,99.53
941.00,99.53
940.00,99.54
939.00,99.55
938.00,99.57
937.00,99.58
936.00,99.59
935.00,99.60
934.00,99.61
933.00,99.63
932.00,99.64
931.00,99.64
930.00,99.63
929.00,99.63
928.00,99.63
927.00,99.63
926.00,99.62
925.00,99.62
924.00,99.61
923.00,99.61
922.00,99.61
921.00,99.63
920.00,99.64
919.00,99.64
918.00,99.64
917.00,99.63
916.00,99.63
915.00,99.63
914.00,99.62
913.00,99.61
912.00,99.60
911.00,99.59
910.00,99.58
909.00,99.56
908.00,99.55
907.00,99.53
906.00,99.50
905.00,99.46
904.00,99.42
903.00,99.37
902.00,99.33
901.00,99.29
900.00,99.26
899.00,99.26
898.00,99.28
897.00,99.31
896.00,99.36
895.00,99.42
894.00,99.46
893.00,99.50
892.00,99.52
891.00,99.53
890.00,99.55
889.00,99.56
888.00,99.56
887.00,99.56
886.00,99.57
885.00,99.58
884.00,99.59
883.00,99.60
882.00,99.60
881.00,99.60
880.00,99.60
879.00,99.59
878.00,99.58
877.00,99.58
876.00,99.57
875.00,99.56
874.00,99.56
873.00,99.56
872.00,99.57
871.00,99.59
870.00,99.59
869.00,99.59
868.00,99.58
867.00,99.56
866.00,99.55
865.00,99.54
864.00,99.52
863.00,99.51
862.00,99.51
861.00,99.51
860.00,99.51
859.00,99.50
858.00,99.50
857.00,99.49
856.00,99.47
855.00,99.46
854.00,99.45
853.00,99.44
852.00,99.43
851.00,99.42
850.00,99.41
849.00,99.39
848.00,99.37
847.00,99.33
846.00,99.26
845.00,99.16
844.00,99.03
843.00,98.91
842.00,98.82
841.00,98.82
840.00,98.90
839.00,99.02
838.00,99.15
837.00,99.25
836.00,99.31
835.00,99.34
834.00,99.37
833.00,99.38
832.00,99.40
831.00,99.40
830.00,99.41
829.00,99.42
828.00,99.43
827.00,99.43
826.00,99.44
825.00,99.43
824.00,99.43
823.00,99.42
822.00,99.42
821.00,99.42
820.00,99.43
819.00,99.43
818.00,99.43
817.00,99.42
816.00,99.40
815.00,99.35
814.00,99.28
813.00,99.21
812.00,99.15
811.00,99.10
810.00,99.07
809.00,99.06
808.00,99.07
807.00,99.11
806.00,99.16
805.00,99.21
804.00,99.27
803.00,99.32
802.00,99.37
801.00,99.39
800.00,99.40
799.00,99.41
798.00,99.42
797.00,99.44
796.00,99.45
795.00,99.46
794.00,99.46
793.00,99.46
792.00,99.47
791.00,99.48
790.00,99.49
789.00,99.49
788.00,99.49
787.00,99.49
786.00,99.48
785.00,99.48
784.00,99.49
783.00,99.50
782.00,99.51
781.00,99.52
780.00,99.52
779.00,99.52
778.00,99.52
777.00,99.51
776.00,99.50
775.00,99.49
774.00,99.49
773.00,99.49
772.00,99.50
771.00,99.50
770.00,99.51
769.00,99.52
768.00,99.53
767.00,99.54
766.00,99.54
765.00,99.54
764.00,99.55
763.00,99.55
762.00,99.55
761.00,99.54
760.00,99.54
759.00,99.54
758.00,99.53
757.00,99.53
756.00,99.53
755.00,99.53
754.00,99.53
753.00,99.53
752.00,99.53
751.00,99.54
750.00,99.54
749.00,99.54
748.00,99.53
747.00,99.53
746.00,99.53
745.00,99.53
744.00,99.53
743.00,99.53
742.00,99.52
741.00,99.52
740.00,99.51
739.00,99.51
738.00,99.51
737.00,99.50
736.00,99.50
735.00,99.51
734.00,99.51
733.00,99.51
732.00,99.51
731.00,99.50
730.00,99.50
729.00,99.50
728.00,99.50
727.00,99.51
726.00,99.52
725.00,99.52
724.00,99.52
723.00,99.52
722.00,99.52
721.00,99.52
720.00,99.51
719.00,99.50
718.00,99.48
717.00,99.47
716.00,99.46
715.00,99.46
714.00,99.48
713.00,99.49
712.00,99.50
711.00,99.50
710.00,99.50
709.00,99.50
708.00,99.50
707.00,99.49
706.00,99.47
705.00,99.47
704.00,99.46
703.00,99.45
702.00,99.45
701.00,99.44
700.00,99.45
699.00,99.45
698.00,99.47
697.00,99.48
696.00,99.48
695.00,99.49
694.00,99.48
693.00,99.46
692.00,99.45
691.00,99.45
690.00,99.46
689.00,99.47
688.00,99.49
687.00,99.51
686.00,99.53
685.00,99.53
684.00,99.52
683.00,99.51
682.00,99.50
681.00,99.50
680.00,99.50
679.00,99.49
678.00,99.48
677.00,99.46
676.00,99.45
675.00,99.45
674.00,99.46
673.00,99.47
672.00,99.50
671.00,99.52
670.00,99.55
669.00,99.57
668.00,99.56
667.00,99.52
666.00,99.48
665.00,99.46
664.00,99.44
663.00,99.42
662.00,99.42
661.00,99.43
660.00,99.45
659.00,99.48
658.00,99.49
657.00,99.48
656.00,99.45
655.00,99.41
654.00,99.41
653.00,99.43
652.00,99.45
651.00,99.45
650.00,99.44
