Created as New Dataset,PS 280kDa Sigma
cm-1,%T
4000.00,96.72
3999.00,96.73
3998.00,96.73
3997.00,96.73
3996.00,96.73
3995.00,96.73
3994.00,96.73
3993.00,96.73
3992.00,96.73
3991.00,96.74
3990.00,96.74
3989.00,96.74
3988.00,96.74
3987.00,96.74
3986.00,96.74
3985.00,96.74
3984.00,96.74
3983.00,96.74
3982.00,96.74
3981.00,96.74
3980.00,96.74
3979.00,96.74
3978.00,96.73
3977.00,96.73
3976.00,96.72
3975.00,96.72
3974.00,96.72
3973.00,96.72
3972.00,96.72
3971.00,96.73
3970.00,96.73
3969.00,96.73
3968.00,96.73
3967.00,96.73
3966.00,96.73
3965.00,96.73
3964.00,96.73
3963.00,96.73
3962.00,96.73
3961.00,96.73
3960.00,96.73
3959.00,96.73
3958.00,96.73
3957.00,96.73
3956.00,96.73
3955.00,96.73
3954.00,96.72
3953.00,96.72
3952.00,96.72
3951.00,96.72
3950.00,96.72
3949.00,96.72
3948.00,96.72
3947.00,96.72
3946.00,96.72
3945.00,96.72
3944.00,96.71
3943.00,96.71
3942.00,96.71
3941.00,96.72
3940.00,96.72
3939.00,96.72
3938.00,96.72
3937.00,96.71
3936.00,96.71
3935.00,96.71
3934.00,96.71
3933.00,96.71
3932.00,96.71
3931.00,96.71
3930.00,96.71
3929.00,96.71
3928.00,96.71
3927.00,96.71
3926.00,96.71
3925.00,96.70
3924.00,96.70
3923.00,96.70
3922.00,96.70
3921.00,96.70
3920.00,96.70
3919.00,96.70
3918.00,96.70
3917.00,96.71
3916.00,96.71
3915.00,96.71
3914.00,96.71
3913.00,96.71
3912.00,96.70
3911.00,96.70
3910.00,96.70
3909.00,96.70
3908.00,96.70
3907.00,96.69
3906.00,96.70
3905.00,96.70
3904.00,96.70
3903.00,96.69
3902.00,96.69
3901.00,96.68
3900.00,96.68
3899.00,96.68
3898.00,96.68
3897.00,96.69
3896.00,96.69
3895.00,96.69
3894.00,96.69
3893.00,96.69
3892.00,96.69
3891.00,96.69
3890.00,96.70
3889.00,96.70
3888.00,96.70
3887.00,96.70
3886.00,96.69
3885.00,96.69
3884.00,96.68
3883.00,96.68
3882.00,96.68
3881.00,96.69
3880.00,96.69
3879.00,96.69
3878.00,96.69
3877.00,96.69
3876.00,96.68
3875.00,96.68
3874.00,96.68
3873.00,96.68
3872.00,96.68
3871.00,96.67
3870.00,96.67
3869.00,96.67
3868.00,96.67
3867.00,96.67
3866.00,96.67
3865.00,96.67
3864.00,96.67
3863.00,96.67
3862.00,96.67
3861.00,96.67
3860.00,96.67
3859.00,96.67
3858.00,96.68
3857.00,96.68
3856.00,96.68
3855.00,96.68
3854.00,96.67
3853.00,96.66
3852.00,96.66
3851.00,96.65
3850.00,96.65
3849.00,96.65
3848.00,96.66
3847.00,96.66
3846.00,96.66
3845.00,96.66
3844.00,96.66
3843.00,96.65
3842.00,96.65
3841.00,96.64
3840.00,96.64
3839.00,96.63
3838.00,96.64
3837.00,96.65
3836.00,96.65
3835.00,96.65
3834.00,96.65
3833.00,96.65
3832.00,96.65
3831.00,96.64
3830.00,96.64
3829.00,96.63
3828.00,96.63
3827.00,96.63
3826.00,96.63
3825.00,96.63
3824.00,96.63
3823.00,96.62
3822.00,96.62
3821.00,96.62
3820.00,96.62
3819.00,96.62
3818.00,96.62
3817.00,96.62
3816.00,96.62
3815.00,96.62
3814.00,96.62
3813.00,96.62
3812.00,96.62
3811.00,96.62
3810.00,96.62
3809.00,96.62
3808.00,96.62
3807.00,96.62
3806.00,96.61
3805.00,96.61
3804.00,96.60
3803.00,96.60
3802.00,96.60
3801.00,96.60
3800.00,96.60
3799.00,96.60
3798.00,96.60
3797.00,96.60
3796.00,96.60
3795.00,96.61
3794.00,96.61
3793.00,96.61
3792.00,96.61
3791.00,96.61
3790.00,96.61
3789.00,96.61
3788.00,96.60
3787.00,96.60
3786.00,96.60
3785.00,96.61
3784.00,96.61
3783.00,96.61
3782.00,96.60
3781.00,96.60
3780.00,96.60
3779.00,96.60
3778.00,96.60
3777.00,96.60
3776.00,96.60
3775.00,96.60
3774.00,96.60
3773.00,96.59
3772.00,96.59
3771.00,96.59
3770.00,96.58
3769.00,96.58
3768.00,96.58
3767.00,96.57
3766.00,96.58
3765.00,96.58
3764.00,96.58
3763.00,96.58
3762.00,96.58
3761.00,96.58
3760.00,96.57
3759.00,96.57
3758.00,96.57
3757.00,96.57
3756.00,96.57
3755.00,96.57
3754.00,96.56
3753.00,96.55
3752.00,96.55
3751.00,96.54
3750.00,96.54
3749.00,96.54
3748.00,96.54
3747.00,96.54
3746.00,96.55
3745.00,96.55
3744.00,96.55
3743.00,96.54
3742.00,96.54
3741.00,96.54
3740.00,96.54
3739.00,96.54
3738.00,96.54
3737.00,96.54
3736.00,96.54
3735.00,96.54
3734.00,96.54
3733.00,96.54
3732.00,96.54
3731.00,96.54
3730.00,96.54
3729.00,96.54
3728.00,96.54
3727.00,96.54
3726.00,96.54
3725.00,96.54
3724.00,96.54
3723.00,96.54
3722.00,96.54
3721.00,96.54
3720.00,96.54
3719.00,96.54
3718.00,96.54
3717.00,96.55
3716.00,96.55
3715.00,96.55
3714.00,96.55
3713.00,96.55
3712.00,96.56
3711.00,96.56
3710.00,96.56
3709.00,96.55
3708.00,96.55
3707.00,96.55
3706.00,96.55
3705.00,96.55
3704.00,96.55
3703.00,96.55
3702.00,96.56
3701.00,96.56
3700.00,96.56
3699.00,96.55
3698.00,96.55
3697.00,96.55
3696.00,96.55
3695.00,96.55
3694.00,96.54
3693.00,96.54
3692.00,96.54
3691.00,96.54
3690.00,96.55
3689.00,96.56
3688.00,96.56
3687.00,96.55
3686.00,96.55
3685.00,96.55
3684.00,96.54
3683.00,96.54
3682.00,96.54
3681.00,96.54
3680.00,96.54
3679.00,96.54
3678.00,96.55
3677.00,96.55
3676.00,96.55
3675.00,96.55
3674.00,96.54
3673.00,96.54
3672.00,96.54
3671.00,96.55
3670.00,96.55
3669.00,96.55
3668.00,96.54
3667.00,96.54
3666.00,96.54
3665.00,96.55
3664.00,96.55
3663.00,96.55
3662.00,96.55
3661.00,96.55
3660.00,96.55
3659.00,96.55
3658.00,96.55
3657.00,96.55
3656.00,96.55
3655.00,96.55
3654.00,96.54
3653.00,96.54
3652.00,96.53
3651.00,96.52
3650.00,96.51
3649.00,96.51
3648.00,96.52
3647.00,96.52
3646.00,96.53
3645.00,96.53
3644.00,96.53
3643.00,96.54
3642.00,96.54
3641.00,96.55
3640.00,96.56
3639.00,96.57
3638.00,96.57
3637.00,96.57
3636.00,96.57
3635.00,96.57
3634.00,96.57
3633.00,96.57
3632.00,96.57
3631.00,96.58
3630.00,96.57
3629.00,96.57
3628.00,96.57
3627.00,96.57
3626.00,96.57
3625.00,96.57
3624.00,96.57
3623.00,96.57
3622.00,96.57
3621.00,96.57
3620.00,96.57
3619.00,96.57
3618.00,96.57
3617.00,96.57
3616.00,96.57
3615.00,96.57
3614.00,96.58
3613.00,96.59
3612.00,96.59
3611.00,96.60
3610.00,96.59
3609.00,96.59
3608.00,96.59
3607.00,96.60
3606.00,96.60
3605.00,96.61
3604.00,96.61
3603.00,96.60
3602.00,96.60
3601.00,96.60
3600.00,96.60
3599.00,96.61
3598.00,96.61
3597.00,96.61
3596.00,96.61
3595.00,96.61
3594.00,96.62
3593.00,96.63
3592.00,96.63
3591.00,96.63
3590.00,96.62
3589.00,96.62
3588.00,96.62
3587.00,96.62
3586.00,96.63
3585.00,96.63
3584.00,96.64
3583.00,96.64
3582.00,96.64
3581.00,96.64
3580.00,96.64
3579.00,96.64
3578.00,96.64
3577.00,96.64
3576.00,96.64
3575.00,96.64
3574.00,96.64
3573.00,96.64
3572.00,96.64
3571.00,96.64
3570.00,96.64
3569.00,96.64
3568.00,96.64
3567.00,96.64
3566.00,96.64
3565.00,96.64
3564.00,96.65
3563.00,96.65
3562.00,96.65
3561.00,96.66
3560.00,96.66
3559.00,96.66
3558.00,96.66
3557.00,96.66
3556.00,96.66
3555.00,96.66
3554.00,96.66
3553.00,96.66
3552.00,96.66
3551.00,96.66
3550.00,96.66
3549.00,96.66
3548.00,96.65
3547.00,96.65
3546.00,96.65
3545.00,96.65
3544.00,96.65
3543.00,96.65
3542.00,96.66
3541.00,96.66
3540.00,96.66
3539.00,96.66
3538.00,96.66
3537.00,96.66
3536.00,96.66
3535.00,96.65
3534.00,96.65
3533.00,96.65
3532.00,96.65
3531.00,96.65
3530.00,96.65
3529.00,96.65
3528.00,96.65
3527.00,96.66
3526.00,96.66
3525.00,96.66
3524.00,96.66
3523.00,96.66
3522.00,96.65
3521.00,96.65
3520.00,96.65
3519.00,96.65
3518.00,96.65
3517.00,96.65
3516.00,96.66
3515.00,96.66
3514.00,96.66
3513.00,96.66
3512.00,96.66
3511.00,96.65
3510.00,96.65
3509.00,96.66
3508.00,96.66
3507.00,96.66
3506.00,96.66
3505.00,96.65
3504.00,96.65
3503.00,96.65
3502.00,96.66
3501.00,96.66
3500.00,96.66
3499.00,96.66
3498.00,96.65
3497.00,96.65
3496.00,96.65
3495.00,96.65
3494.00,96.65
3493.00,96.65
3492.00,96.65
3491.00,96.65
3490.00,96.65
3489.00,96.65
3488.00,96.65
3487.00,96.65
3486.00,96.65
3485.00,96.65
3484.00,96.65
3483.00,96.65
3482.00,96.65
3481.00,96.64
3480.00,96.64
3479.00,96.64
3478.00,96.65
3477.00,96.65
3476.00,96.65
3475.00,96.65
3474.00,96.65
3473.00,96.65
3472.00,96.65
3471.00,96.65
3470.00,96.65
3469.00,96.64
3468.00,96.64
3467.00,96.65
3466.00,96.65
3465.00,96.65
3464.00,96.65
3463.00,96.65
3462.00,96.65
3461.00,96.64
3460.00,96.64
3459.00,96.64
3458.00,96.63
3457.00,96.63
3456.00,96.63
3455.00,96.63
3454.00,96.63
3453.00,96.64
3452.00,96.64
3451.00,96.64
3450.00,96.64
3449.00,96.64
3448.00,96.64
3447.00,96.63
3446.00,96.63
3445.00,96.62
3444.00,96.62
3443.00,96.63
3442.00,96.63
3441.00,96.64
3440.00,96.64
3439.00,96.64
3438.00,96.64
3437.00,96.64
3436.00,96.65
3435.00,96.65
3434.00,96.65
3433.00,96.64
3432.00,96.64
3431.00,96.64
3430.00,96.64
3429.00,96.64
3428.00,96.64
3427.00,96.64
3426.00,96.64
3425.00,96.64
3424.00,96.64
3423.00,96.64
3422.00,96.64
3421.00,96.63
3420.00,96.63
3419.00,96.63
3418.00,96.64
3417.00,96.64
3416.00,96.64
3415.00,96.65
3414.00,96.65
3413.00,96.65
3412.00,96.64
3411.00,96.64
3410.00,96.63
3409.00,96.63
3408.00,96.63
3407.00,96.64
3406.00,96.64
3405.00,96.65
3404.00,96.65
3403.00,96.65
3402.00,96.65
3401.00,96.64
3400.00,96.64
3399.00,96.64
3398.00,96.64
3397.00,96.64
3396.00,96.64
3395.00,96.64
3394.00,96.64
3393.00,96.64
3392.00,96.64
3391.00,96.64
3390.00,96.65
3389.00,96.65
3388.00,96.64
3387.00,96.64
3386.00,96.63
3385.00,96.63
3384.00,96.63
3383.00,96.63
3382.00,96.64
3381.00,96.64
3380.00,96.64
3379.00,96.64
3378.00,96.63
3377.00,96.63
3376.00,96.63
3375.00,96.64
3374.00,96.64
3373.00,96.64
3372.00,96.64
3371.00,96.63
3370.00,96.63
3369.00,96.64
3368.00,96.64
3367.00,96.64
3366.00,96.64
3365.00,96.63
3364.00,96.63
3363.00,96.63
3362.00,96.62
3361.00,96.62
3360.00,96.62
3359.00,96.62
3358.00,96.62
3357.00,96.62
3356.00,96.62
3355.00,96.62
3354.00,96.62
3353.00,96.62
3352.00,96.62
3351.00,96.62
3350.00,96.61
3349.00,96.61
3348.00,96.61
3347.00,96.61
3346.00,96.61
3345.00,96.61
3344.00,96.61
3343.00,96.61
3342.00,96.61
3341.00,96.61
3340.00,96.61
3339.00,96.61
3338.00,96.61
3337.00,96.61
3336.00,96.61
3335.00,96.61
3334.00,96.61
3333.00,96.61
3332.00,96.61
3331.00,96.60
3330.00,96.60
3329.00,96.59
3328.00,96.59
3327.00,96.59
3326.00,96.60
3325.00,96.60
3324.00,96.60
3323.00,96.60
3322.00,96.60
3321.00,96.60
3320.00,96.60
3319.00,96.60
3318.00,96.60
3317.00,96.60
3316.00,96.60
3315.00,96.59
3314.00,96.59
3313.00,96.59
3312.00,96.59
3311.00,96.59
3310.00,96.59
3309.00,96.59
3308.00,96.60
3307.00,96.60
3306.00,96.60
3305.00,96.60
3304.00,96.59
3303.00,96.59
3302.00,96.59
3301.00,96.59
3300.00,96.59
3299.00,96.59
3298.00,96.59
3297.00,96.59
3296.00,96.59
3295.00,96.58
3294.00,96.58
3293.00,96.59
3292.00,96.59
3291.00,96.59
3290.00,96.59
3289.00,96.59
3288.00,96.59
3287.00,96.59
3286.00,96.59
3285.00,96.58
3284.00,96.58
3283.00,96.58
3282.00,96.58
3281.00,96.58
3280.00,96.58
3279.00,96.58
3278.00,96.58
3277.00,96.58
3276.00,96.58
3275.00,96.58
3274.00,96.57
3273.00,96.57
3272.00,96.58
3271.00,96.58
3270.00,96.58
3269.00,96.58
3268.00,96.57
3267.00,96.57
3266.00,96.57
3265.00,96.57
3264.00,96.57
3263.00,96.57
3262.00,96.57
3261.00,96.57
3260.00,96.57
3259.00,96.57
3258.00,96.58
3257.00,96.58
3256.00,96.58
3255.00,96.57
3254.00,96.57
3253.00,96.57
3252.00,96.56
3251.00,96.56
3250.00,96.57
3249.00,96.57
3248.00,96.57
3247.00,96.57
3246.00,96.57
3245.00,96.57
3244.00,96.57
3243.00,96.57
3242.00,96.57
3241.00,96.57
3240.00,96.57
3239.00,96.57
3238.00,96.57
3237.00,96.57
3236.00,96.58
3235.00,96.58
3234.00,96.58
3233.00,96.58
3232.00,96.58
3231.00,96.57
3230.00,96.57
3229.00,96.57
3228.00,96.57
3227.00,96.58
3226.00,96.58
3225.00,96.58
3224.00,96.58
3223.00,96.58
3222.00,96.57
3221.00,96.57
3220.00,96.58
3219.00,96.58
3218.00,96.58
3217.00,96.57
3216.00,96.56
3215.00,96.56
3214.00,96.55
3213.00,96.55
3212.00,96.56
3211.00,96.56
3210.00,96.56
3209.00,96.55
3208.00,96.56
3207.00,96.56
3206.00,96.56
3205.00,96.56
3204.00,96.55
3203.00,96.55
3202.00,96.55
3201.00,96.55
3200.00,96.55
3199.00,96.54
3198.00,96.54
3197.00,96.54
3196.00,96.54
3195.00,96.55
3194.00,96.55
3193.00,96.55
3192.00,96.55
3191.00,96.56
3190.00,96.55
3189.00,96.55
3188.00,96.55
3187.00,96.56
3186.00,96.56
3185.00,96.56
3184.00,96.57
3183.00,96.57
3182.00,96.56
3181.00,96.56
3180.00,96.56
3179.00,96.56
3178.00,96.56
3177.00,96.56
3176.00,96.56
3175.00,96.55
3174.00,96.55
3173.00,96.55
3172.00,96.54
3171.00,96.54
3170.00,96.54
3169.00,96.54
3168.00,96.54
3167.00,96.53
3166.00,96.53
3165.00,96.53
3164.00,96.52
3163.00,96.52
3162.00,96.52
3161.00,96.52
3160.00,96.53
3159.00,96.53
3158.00,96.54
3157.00,96.54
3156.00,96.55
3155.00,96.55
3154.00,96.56
3153.00,96.56
3152.00,96.56
3151.00,96.56
3150.00,96.56
3149.00,96.56
3148.00,96.56
3147.00,96.56
3146.00,96.56
3145.00,96.56
3144.00,96.56
3143.00,96.57
3142.00,96.57
3141.00,96.57
3140.00,96.57
3139.00,96.57
3138.00,96.58
3137.00,96.58
3136.00,96.58
3135.00,96.58
3134.00,96.58
3133.00,96.58
3132.00,96.58
3131.00,96.58
3130.00,96.58
3129.00,96.58
3128.00,96.58
3127.00,96.58
3126.00,96.58
3125.00,96.58
3124.00,96.58
3123.00,96.58
3122.00,96.57
3121.00,96.56
3120.00,96.55
3119.00,96.55
3118.00,96.54
3117.00,96.52
3116.00,96.50
3115.00,96.48
3114.00,96.45
3113.00,96.42
3112.00,96.38
3111.00,96.34
3110.00,96.30
3109.00,96.26
3108.00,96.21
3107.00,96.16
3106.00,96.13
3105.00,96.11
3104.00,96.10
3103.00,96.10
3102.00,96.11
3101.00,96.13
3100.00,96.14
3099.00,96.16
3098.00,96.17
3097.00,96.17
3096.00,96.15
3095.00,96.12
3094.00,96.08
3093.00,96.01
3092.00,95.93
3091.00,95.82
3090.00,95.70
3089.00,95.55
3088.00,95.39
3087.00,95.23
3086.00,95.08
3085.00,94.96
3084.00,94.88
3083.00,94.85
3082.00,94.87
3081.00,94.92
3080.00,95.00
3079.00,95.10
3078.00,95.19
3077.00,95.27
3076.00,95.33
3075.00,95.37
3074.00,95.38
3073.00,95.37
3072.00,95.34
3071.00,95.29
3070.00,95.21
3069.00,95.12
3068.00,94.99
3067.00,94.85
3066.00,94.69
3065.00,94.53
3064.00,94.37
3063.00,94.22
3062.00,94.11
3061.00,94.04
3060.00,94.02
3059.00,94.06
3058.00,94.14
3057.00,94.25
3056.00,94.39
3055.00,94.54
3054.00,94.69
3053.00,94.82
3052.00,94.95
3051.00,95.06
3050.00,95.15
3049.00,95.22
3048.00,95.28
3047.00,95.33
3046.00,95.35
3045.00,95.36
3044.00,95.35
3043.00,95.31
3042.00,95.26
3041.00,95.19
3040.00,95.09
3039.00,94.97
3038.00,94.81
3037.00,94.63
3036.00,94.41
3035.00,94.15
3034.00,93.85
3033.00,93.51
3032.00,93.13
3031.00,92.74
3030.00,92.34
3029.00,91.98
3028.00,91.67
3027.00,91.45
3026.00,91.35
3025.00,91.38
3024.00,91.54
3023.00,91.81
3022.00,92.17
3021.00,92.58
3020.00,93.00
3019.00,93.40
3018.00,93.76
3017.00,94.08
3016.00,94.34
3015.00,94.57
3014.00,94.75
3013.00,94.89
3012.00,95.00
3011.00,95.08
3010.00,95.13
3009.00,95.15
3008.00,95.15
3007.00,95.14
3006.00,95.11
3005.00,95.07
3004.00,95.04
3003.00,95.02
3002.00,95.02
3001.00,95.05
3000.00,95.11
2999.00,95.19
2998.00,95.29
2997.00,95.39
2996.00,95.49
2995.00,95.58
2994.00,95.66
2993.00,95.72
2992.00,95.77
2991.00,95.81
2990.00,95.85
2989.00,95.88
2988.00,95.90
2987.00,95.92
2986.00,95.93
2985.00,95.94
2984.00,95.95
2983.00,95.96
2982.00,95.96
2981.00,95.97
2980.00,95.97
2979.00,95.97
2978.00,95.97
2977.00,95.97
2976.00,95.97
2975.00,95.98
2974.00,95.98
2973.00,95.98
2972.00,95.98
2971.00,95.97
2970.00,95.96
2969.00,95.95
2968.00,95.94
2967.00,95.92
2966.00,95.90
2965.00,95.88
2964.00,95.85
2963.00,95.83
2962.00,95.80
2961.00,95.76
2960.00,95.72
2959.00,95.68
2958.00,95.63
2957.00,95.57
2956.00,95.52
2955.00,95.45
2954.00,95.38
2953.00,95.31
2952.00,95.23
2951.00,95.15
2950.00,95.06
2949.00,94.96
2948.00,94.85
2947.00,94.74
2946.00,94.62
2945.00,94.49
2944.00,94.36
2943.00,94.21
2942.00,94.05
2941.00,93.89
2940.00,93.71
2939.00,93.53
2938.00,93.34
2937.00,93.14
2936.00,92.93
2935.00,92.72
2934.00,92.50
2933.00,92.28
2932.00,92.07
2931.00,91.85
2930.00,91.65
2929.00,91.45
2928.00,91.27
2927.00,91.10
2926.00,90.95
2925.00,90.82
2924.00,90.71
2923.00,90.62
2922.00,90.56
2921.00,90.51
2920.00,90.49
2919.00,90.49
2918.00,90.51
2917.00,90.55
2916.00,90.61
2915.00,90.67
2914.00,90.76
2913.00,90.85
2912.00,90.95
2911.00,91.06
2910.00,91.18
2909.00,91.31
2908.00,91.44
2907.00,91.57
2906.00,91.71
2905.00,91.86
2904.00,92.01
2903.00,92.16
2902.00,92.31
2901.00,92.46
2900.00,92.62
2899.00,92.76
2898.00,92.90
2897.00,93.03
2896.00,93.15
2895.00,93.26
2894.00,93.36
2893.00,93.46
2892.00,93.54
2891.00,93.62
2890.00,93.68
2889.00,93.75
2888.00,93.81
2887.00,93.86
2886.00,93.92
2885.00,93.98
2884.00,94.03
2883.00,94.08
2882.00,94.13
2881.00,94.18
2880.00,94.23
2879.00,94.28
2878.00,94.32
2877.00,94.37
2876.00,94.41
2875.00,94.45
2874.00,94.49
2873.00,94.53
2872.00,94.55
2871.00,94.58
2870.00,94.59
2869.00,94.61
2868.00,94.61
2867.00,94.61
2866.00,94.60
2865.00,94.58
2864.00,94.55
2863.00,94.51
2862.00,94.45
2861.00,94.39
2860.00,94.32
2859.00,94.24
2858.00,94.16
2857.00,94.07
2856.00,93.97
2855.00,93.88
2854.00,93.79
2853.00,93.71
2852.00,93.64
2851.00,93.58
2850.00,93.54
2849.00,93.52
2848.00,93.52
2847.00,93.54
2846.00,93.59
2845.00,93.66
2844.00,93.75
2843.00,93.86
2842.00,93.99
2841.00,94.12
2840.00,94.27
2839.00,94.41
2838.00,94.55
2837.00,94.69
2836.00,94.81
2835.00,94.91
2834.00,95.01
2833.00,95.09
2832.00,95.16
2831.00,95.22
2830.00,95.27
2829.00,95.31
2828.00,95.35
2827.00,95.38
2826.00,95.40
2825.00,95.43
2824.00,95.45
2823.00,95.47
2822.00,95.48
2821.00,95.50
2820.00,95.51
2819.00,95.52
2818.00,95.53
2817.00,95.54
2816.00,95.55
2815.00,95.56
2814.00,95.57
2813.00,95.58
2812.00,95.59
2811.00,95.59
2810.00,95.60
2809.00,95.60
2808.00,95.61
2807.00,95.61
2806.00,95.62
2805.00,95.63
2804.00,95.63
2803.00,95.64
2802.00,95.65
2801.00,95.66
2800.00,95.67
2799.00,95.68
2798.00,95.69
2797.00,95.70
2796.00,95.70
2795.00,95.71
2794.00,95.71
2793.00,95.72
2792.00,95.72
2791.00,95.72
2790.00,95.73
2789.00,95.73
2788.00,95.74
2787.00,95.74
2786.00,95.74
2785.00,95.74
2784.00,95.74
2783.00,95.74
2782.00,95.75
2781.00,95.75
2780.00,95.76
2779.00,95.76
2778.00,95.76
2777.00,95.77
2776.00,95.77
2775.00,95.77
2774.00,95.78
2773.00,95.78
2772.00,95.79
2771.00,95.79
2770.00,95.79
2769.00,95.80
2768.00,95.80
2767.00,95.81
2766.00,95.81
2765.00,95.82
2764.00,95.82
2763.00,95.83
2762.00,95.83
2761.00,95.83
2760.00,95.83
2759.00,95.83
2758.00,95.83
2757.00,95.84
2756.00,95.84
2755.00,95.84
2754.00,95.85
2753.00,95.85
2752.00,95.85
2751.00,95.85
2750.00,95.85
2749.00,95.85
2748.00,95.85
2747.00,95.85
2746.00,95.85
2745.00,95.85
2744.00,95.85
2743.00,95.85
2742.00,95.85
2741.00,95.85
2740.00,95.86
2739.00,95.86
2738.00,95.86
2737.00,95.85
2736.00,95.85
2735.00,95.86
2734.00,95.86
2733.00,95.86
2732.00,95.86
2731.00,95.86
2730.00,95.86
2729.00,95.86
2728.00,95.86
2727.00,95.86
2726.00,95.85
2725.00,95.85
2724.00,95.85
2723.00,95.85
2722.00,95.85
2721.00,95.85
2720.00,95.85
2719.00,95.86
2718.00,95.86
2717.00,95.86
2716.00,95.86
2715.00,95.86
2714.00,95.86
2713.00,95.86
2712.00,95.86
2711.00,95.86
2710.00,95.86
2709.00,95.86
2708.00,95.86
2707.00,95.86
2706.00,95.86
2705.00,95.86
2704.00,95.86
2703.00,95.86
2702.00,95.86
2701.00,95.86
2700.00,95.86
2699.00,95.86
2698.00,95.86
2697.00,95.86
2696.00,95.86
2695.00,95.86
2694.00,95.87
2693.00,95.87
2692.00,95.87
2691.00,95.87
2690.00,95.87
2689.00,95.87
2688.00,95.87
2687.00,95.87
2686.00,95.87
2685.00,95.87
2684.00,95.87
2683.00,95.87
2682.00,95.87
2681.00,95.87
2680.00,95.87
2679.00,95.87
2678.00,95.86
2677.00,95.86
2676.00,95.86
2675.00,95.86
2674.00,95.86
2673.00,95.86
2672.00,95.87
2671.00,95.87
2670.00,95.87
2669.00,95.87
2668.00,95.87
2667.00,95.86
2666.00,95.86
2665.00,95.85
2664.00,95.85
2663.00,95.84
2662.00,95.83
2661.00,95.83
2660.00,95.82
2659.00,95.81
2658.00,95.80
2657.00,95.79
2656.00,95.79
2655.00,95.78
2654.00,95.78
2653.00,95.77
2652.00,95.77
2651.00,95.76
2650.00,95.76
2649.00,95.75
2648.00,95.75
2647.00,95.74
2646.00,95.74
2645.00,95.74
2644.00,95.73
2643.00,95.73
2642.00,95.73
2641.00,95.73
2640.00,95.73
2639.00,95.72
2638.00,95.72
2637.00,95.71
2636.00,95.70
2635.00,95.70
2634.00,95.69
2633.00,95.69
2632.00,95.69
2631.00,95.69
2630.00,95.69
2629.00,95.69
2628.00,95.69
2627.00,95.69
2626.00,95.69
2625.00,95.69
2624.00,95.70
2623.00,95.70
2622.00,95.70
2621.00,95.70
2620.00,95.69
2619.00,95.69
2618.00,95.69
2617.00,95.69
2616.00,95.69
2615.00,95.69
2614.00,95.69
2613.00,95.69
2612.00,95.69
2611.00,95.68
2610.00,95.68
2609.00,95.67
2608.00,95.66
2607.00,95.66
2606.00,95.65
2605.00,95.65
2604.00,95.65
2603.00,95.65
2602.00,95.65
2601.00,95.65
2600.00,95.66
2599.00,95.66
2598.00,95.67
2597.00,95.67
2596.00,95.68
2595.00,95.68
2594.00,95.69
2593.00,95.69
2592.00,95.69
2591.00,95.69
2590.00,95.69
2589.00,95.68
2588.00,95.68
2587.00,95.67
2586.00,95.67
2585.00,95.67
2584.00,95.66
2583.00,95.66
2582.00,95.66
2581.00,95.66
2580.00,95.66
2579.00,95.66
2578.00,95.67
2577.00,95.67
2576.00,95.68
2575.00,95.68
2574.00,95.68
2573.00,95.68
2572.00,95.68
2571.00,95.68
2570.00,95.67
2569.00,95.67
2568.00,95.67
2567.00,95.67
2566.00,95.68
2565.00,95.68
2564.00,95.68
2563.00,95.68
2562.00,95.68
2561.00,95.68
2560.00,95.68
2559.00,95.68
2558.00,95.68
2557.00,95.68
2556.00,95.68
2555.00,95.68
2554.00,95.68
2553.00,95.67
2552.00,95.67
2551.00,95.67
2550.00,95.67
2549.00,95.68
2548.00,95.68
2547.00,95.68
2546.00,95.68
2545.00,95.67
2544.00,95.67
2543.00,95.67
2542.00,95.67
2541.00,95.67
2540.00,95.67
2539.00,95.67
2538.00,95.67
2537.00,95.67
2536.00,95.67
2535.00,95.67
2534.00,95.67
2533.00,95.67
2532.00,95.67
2531.00,95.67
2530.00,95.67
2529.00,95.67
2528.00,95.67
2527.00,95.67
2526.00,95.67
2525.00,95.67
2524.00,95.67
2523.00,95.67
2522.00,95.67
2521.00,95.67
2520.00,95.66
2519.00,95.67
2518.00,95.67
2517.00,95.67
2516.00,95.67
2515.00,95.67
2514.00,95.67
2513.00,95.67
2512.00,95.66
2511.00,95.66
2510.00,95.66
2509.00,95.66
2508.00,95.66
2507.00,95.67
2506.00,95.67
2505.00,95.67
2504.00,95.67
2503.00,95.67
2502.00,95.67
2501.00,95.67
2500.00,95.67
2499.00,95.67
2498.00,95.67
2497.00,95.67
2496.00,95.67
2495.00,95.67
2494.00,95.67
2493.00,95.67
2492.00,95.67
2491.00,95.67
2490.00,95.67
2489.00,95.67
2488.00,95.67
2487.00,95.68
2486.00,95.68
2485.00,95.68
2484.00,95.68
2483.00,95.67
2482.00,95.66
2481.00,95.66
2480.00,95.67
2479.00,95.67
2478.00,95.68
2477.00,95.68
2476.00,95.69
2475.00,95.69
2474.00,95.69
2473.00,95.69
2472.00,95.69
2471.00,95.69
2470.00,95.70
2469.00,95.70
2468.00,95.70
2467.00,95.70
2466.00,95.70
2465.00,95.69
2464.00,95.69
2463.00,95.69
2462.00,95.69
2461.00,95.69
2460.00,95.69
2459.00,95.68
2458.00,95.68
2457.00,95.67
2456.00,95.67
2455.00,95.67
2454.00,95.67
2453.00,95.67
2452.00,95.67
2451.00,95.67
2450.00,95.67
2449.00,95.66
2448.00,95.66
2447.00,95.66
2446.00,95.66
2445.00,95.66
2444.00,95.66
2443.00,95.67
2442.00,95.67
2441.00,95.67
2440.00,95.67
2439.00,95.67
2438.00,95.68
2437.00,95.68
2436.00,95.69
2435.00,95.70
2434.00,95.70
2433.00,95.70
2432.00,95.70
2431.00,95.70
2430.00,95.70
2429.00,95.71
2428.00,95.71
2427.00,95.72
2426.00,95.72
2425.00,95.72
2424.00,95.71
2423.00,95.71
2422.00,95.71
2421.00,95.72
2420.00,95.72
2419.00,95.72
2418.00,95.72
2417.00,95.72
2416.00,95.72
2415.00,95.72
2414.00,95.72
2413.00,95.72
2412.00,95.72
2411.00,95.72
2410.00,95.72
2409.00,95.72
2408.00,95.73
2407.00,95.74
2406.00,95.75
2405.00,95.76
2404.00,95.76
2403.00,95.75
2402.00,95.75
2401.00,95.75
2400.00,95.75
2399.00,95.75
2398.00,95.76
2397.00,95.76
2396.00,95.76
2395.00,95.76
2394.00,95.76
2393.00,95.76
2392.00,95.76
2391.00,95.76
2390.00,95.76
2389.00,95.76
2388.00,95.76
2387.00,95.76
2386.00,95.76
2385.00,95.76
2384.00,95.76
2383.00,95.76
2382.00,95.76
2381.00,95.76
2380.00,95.76
2379.00,95.76
2378.00,95.76
2377.00,95.76
2376.00,95.77
2375.00,95.78
2374.00,95.79
2373.00,95.79
2372.00,95.79
2371.00,95.78
2370.00,95.76
2369.00,95.75
2368.00,95.75
2367.00,95.75
2366.00,95.76
2365.00,95.75
2364.00,95.74
2363.00,95.72
2362.00,95.70
2361.00,95.69
2360.00,95.68
2359.00,95.68
2358.00,95.69
2357.00,95.69
2356.00,95.69
2355.00,95.69
2354.00,95.69
2353.00,95.70
2352.00,95.71
2351.00,95.73
2350.00,95.76
2349.00,95.77
2348.00,95.78
2347.00,95.76
2346.00,95.74
2345.00,95.72
2344.00,95.69
2343.00,95.67
2342.00,95.66
2341.00,95.64
2340.00,95.62
2339.00,95.60
2338.00,95.58
2337.00,95.57
2336.00,95.57
2335.00,95.58
2334.00,95.59
2333.00,95.60
2332.00,95.59
2331.00,95.59
2330.00,95.59
2329.00,95.59
2328.00,95.58
2327.00,95.54
2326.00,95.49
2325.00,95.43
2324.00,95.39
2323.00,95.37
2322.00,95.37
2321.00,95.39
2320.00,95.40
2319.00,95.41
2318.00,95.42
2317.00,95.43
2316.00,95.43
2315.00,95.43
2314.00,95.43
2313.00,95.42
2312.00,95.41
2311.00,95.41
2310.00,95.42
2309.00,95.43
2308.00,95.44
2307.00,95.45
2306.00,95.45
2305.00,95.46
2304.00,95.46
2303.00,95.46
2302.00,95.46
2301.00,95.46
2300.00,95.46
2299.00,95.46
2298.00,95.45
2297.00,95.44
2296.00,95.43
2295.00,95.42
2294.00,95.41
2293.00,95.40
2292.00,95.39
2291.00,95.38
2290.00,95.37
2289.00,95.36
2288.00,95.35
2287.00,95.34
2286.00,95.33
2285.00,95.31
2284.00,95.31
2283.00,95.31
2282.00,95.33
2281.00,95.34
2280.00,95.35
2279.00,95.35
2278.00,95.35
2277.00,95.35
2276.00,95.34
2275.00,95.34
2274.00,95.34
2273.00,95.34
2272.00,95.34
2271.00,95.34
2270.00,95.35
2269.00,95.35
2268.00,95.36
2267.00,95.37
2266.00,95.37
2265.00,95.37
2264.00,95.36
2263.00,95.35
2262.00,95.34
2261.00,95.33
2260.00,95.32
2259.00,95.30
2258.00,95.30
2257.00,95.30
2256.00,95.31
2255.00,95.32
2254.00,95.34
2253.00,95.34
2252.00,95.34
2251.00,95.34
2250.00,95.33
2249.00,95.32
2248.00,95.32
2247.00,95.31
2246.00,95.31
2245.00,95.30
2244.00,95.30
2243.00,95.31
2242.00,95.31
2241.00,95.30
2240.00,95.30
2239.00,95.29
2238.00,95.28
2237.00,95.28
2236.00,95.28
2235.00,95.28
2234.00,95.28
2233.00,95.28
2232.00,95.29
2231.00,95.29
2230.00,95.29
2229.00,95.29
2228.00,95.28
2227.00,95.27
2226.00,95.27
2225.00,95.27
2224.00,95.26
2223.00,95.25
2222.00,95.24
2221.00,95.23
2220.00,95.22
2219.00,95.22
2218.00,95.22
2217.00,95.23
2216.00,95.23
2215.00,95.24
2214.00,95.24
2213.00,95.23
2212.00,95.23
2211.00,95.23
2210.00,95.22
2209.00,95.21
2208.00,95.21
2207.00,95.21
2206.00,95.21
2205.00,95.21
2204.00,95.21
2203.00,95.21
2202.00,95.21
2201.00,95.20
2200.00,95.19
2199.00,95.17
2198.00,95.16
2197.00,95.15
2196.00,95.16
2195.00,95.16
2194.00,95.15
2193.00,95.14
2192.00,95.12
2191.00,95.11
2190.00,95.10
2189.00,95.09
2188.00,95.07
2187.00,95.07
2186.00,95.06
2185.00,95.06
2184.00,95.07
2183.00,95.10
2182.00,95.13
2181.00,95.15
2180.00,95.15
2179.00,95.14
2178.00,95.12
2177.00,95.12
2176.00,95.14
2175.00,95.17
2174.00,95.18
2173.00,95.15
2172.00,95.11
2171.00,95.05
2170.00,95.00
2169.00,94.97
2168.00,94.94
2167.00,94.92
2166.00,94.89
2165.00,94.86
2164.00,94.83
2163.00,94.80
2162.00,94.79
2161.00,94.84
2160.00,94.95
2159.00,95.14
2158.00,95.33
2157.00,95.47
2156.00,95.52
2155.00,95.52
2154.00,95.50
2153.00,95.47
2152.00,95.45
2151.00,95.43
2150.00,95.42
2149.00,95.42
2148.00,95.42
2147.00,95.43
2146.00,95.44
2145.00,95.44
2144.00,95.45
2143.00,95.44
2142.00,95.44
2141.00,95.44
2140.00,95.43
2139.00,95.43
2138.00,95.44
2137.00,95.47
2136.00,95.50
2135.00,95.55
2134.00,95.60
2133.00,95.63
2132.00,95.63
2131.00,95.60
2130.00,95.57
2129.00,95.55
2128.00,95.54
2127.00,95.54
2126.00,95.53
2125.00,95.52
2124.00,95.50
2123.00,95.47
2122.00,95.45
2121.00,95.43
2120.00,95.42
2119.00,95.41
2118.00,95.40
2117.00,95.38
2116.00,95.36
2115.00,95.34
2114.00,95.33
2113.00,95.33
2112.00,95.32
2111.00,95.32
2110.00,95.31
2109.00,95.32
2108.00,95.32
2107.00,95.33
2106.00,95.33
2105.00,95.33
2104.00,95.33
2103.00,95.33
2102.00,95.33
2101.00,95.32
2100.00,95.31
2099.00,95.30
2098.00,95.31
2097.00,95.33
2096.00,95.36
2095.00,95.39
2094.00,95.41
2093.00,95.41
2092.00,95.40
2091.00,95.39
2090.00,95.38
2089.00,95.36
2088.00,95.34
2087.00,95.32
2086.00,95.32
2085.00,95.31
2084.00,95.30
2083.00,95.29
2082.00,95.27
2081.00,95.26
2080.00,95.25
2079.00,95.25
2078.00,95.26
2077.00,95.26
2076.00,95.26
2075.00,95.26
2074.00,95.25
2073.00,95.25
2072.00,95.24
2071.00,95.24
2070.00,95.24
2069.00,95.25
2068.00,95.24
2067.00,95.23
2066.00,95.22
2065.00,95.21
2064.00,95.21
2063.00,95.22
2062.00,95.23
2061.00,95.24
2060.00,95.25
2059.00,95.26
2058.00,95.25
2057.00,95.24
2056.00,95.23
2055.00,95.22
2054.00,95.21
2053.00,95.17
2052.00,95.12
2051.00,95.07
2050.00,95.04
2049.00,95.05
2048.00,95.08
2047.00,95.10
2046.00,95.10
2045.00,95.09
2044.00,95.09
2043.00,95.09
2042.00,95.10
2041.00,95.10
2040.00,95.08
2039.00,95.06
2038.00,95.03
2037.00,95.01
2036.00,95.00
2035.00,95.01
2034.00,95.03
2033.00,95.05
2032.00,95.06
2031.00,95.07
2030.00,95.08
2029.00,95.10
2028.00,95.11
2027.00,95.13
2026.00,95.15
2025.00,95.15
2024.00,95.13
2023.00,95.12
2022.00,95.10
2021.00,95.10
2020.00,95.11
2019.00,95.13
2018.00,95.14
2017.00,95.15
2016.00,95.15
2015.00,95.15
2014.00,95.15
2013.00,95.14
2012.00,95.12
2011.00,95.10
2010.00,95.10
2009.00,95.12
2008.00,95.15
2007.00,95.20
2006.00,95.24
2005.00,95.26
2004.00,95.27
2003.00,95.27
2002.00,95.25
2001.00,95.23
2000.00,95.20
1999.00,95.19
1998.00,95.17
1997.00,95.16
1996.00,95.15
1995.00,95.14
1994.00,95.12
1993.00,95.10
1992.00,95.07
1991.00,95.06
1990.00,95.06
1989.00,95.06
1988.00,95.05
1987.00,95.03
1986.00,95.00
1985.00,94.98
1984.00,94.95
1983.00,94.92
1982.00,94.88
1981.00,94.84
1980.00,94.80
1979.00,94.81
1978.00,94.86
1977.00,94.95
1976.00,95.04
1975.00,95.11
1974.00,95.14
1973.00,95.16
1972.00,95.15
1971.00,95.14
1970.00,95.11
1969.00,95.09
1968.00,95.06
1967.00,95.04
1966.00,95.02
1965.00,95.01
1964.00,94.99
1963.00,94.98
1962.00,94.98
1961.00,94.99
1960.00,95.00
1959.00,95.00
1958.00,94.98
1957.00,94.96
1956.00,94.94
1955.00,94.91
1954.00,94.89
1953.00,94.87
1952.00,94.84
1951.00,94.81
1950.00,94.78
1949.00,94.76
1948.00,94.73
1947.00,94.71
1946.00,94.70
1945.00,94.68
1944.00,94.67
1943.00,94.65
1942.00,94.64
1941.00,94.63
1940.00,94.64
1939.00,94.66
1938.00,94.69
1937.00,94.73
1936.00,94.77
1935.00,94.81
1934.00,94.85
1933.00,94.90
1932.00,94.94
1931.00,94.98
1930.00,95.02
1929.00,95.06
1928.00,95.08
1927.00,95.10
1926.00,95.12
1925.00,95.14
1924.00,95.16
1923.00,95.17
1922.00,95.18
1921.00,95.19
1920.00,95.20
1919.00,95.21
1918.00,95.22
1917.00,95.23
1916.00,95.25
1915.00,95.27
1914.00,95.28
1913.00,95.30
1912.00,95.30
1911.00,95.30
1910.00,95.30
1909.00,95.30
1908.00,95.31
1907.00,95.31
1906.00,95.31
1905.00,95.32
1904.00,95.32
1903.00,95.32
1902.00,95.32
1901.00,95.32
1900.00,95.31
1899.00,95.30
1898.00,95.28
1897.00,95.26
1896.00,95.24
1895.00,95.22
1894.00,95.21
1893.00,95.19
1892.00,95.18
1891.00,95.16
1890.00,95.14
1889.00,95.12
1888.00,95.10
1887.00,95.08
1886.00,95.06
1885.00,95.05
1884.00,95.03
1883.00,95.02
1882.00,95.01
1881.00,95.00
1880.00,94.99
1879.00,94.97
1878.00,94.96
1877.00,94.94
1876.00,94.93
1875.00,94.91
1874.00,94.90
1873.00,94.89
1872.00,94.89
1871.00,94.88
1870.00,94.88
1869.00,94.89
1868.00,94.90
1867.00,94.91
1866.00,94.92
1865.00,94.93
1864.00,94.94
1863.00,94.96
1862.00,94.99
1861.00,95.02
1860.00,95.06
1859.00,95.10
1858.00,95.13
1857.00,95.16
1856.00,95.18
1855.00,95.21
1854.00,95.23
1853.00,95.26
1852.00,95.28
1851.00,95.30
1850.00,95.32
1849.00,95.34
1848.00,95.35
1847.00,95.36
1846.00,95.36
1845.00,95.37
1844.00,95.38
1843.00,95.38
1842.00,95.39
1841.00,95.41
1840.00,95.41
1839.00,95.41
1838.00,95.41
1837.00,95.41
1836.00,95.41
1835.00,95.41
1834.00,95.41
1833.00,95.40
1832.00,95.40
1831.00,95.40
1830.00,95.39
1829.00,95.38
1828.00,95.37
1827.00,95.36
1826.00,95.34
1825.00,95.33
1824.00,95.31
1823.00,95.29
1822.00,95.28
1821.00,95.27
1820.00,95.26
1819.00,95.25
1818.00,95.25
1817.00,95.24
1816.00,95.23
1815.00,95.21
1814.00,95.18
1813.00,95.15
1812.00,95.12
1811.00,95.09
1810.00,95.06
1809.00,95.04
1808.00,95.02
1807.00,95.00
1806.00,94.98
1805.00,94.97
1804.00,94.95
1803.00,94.94
1802.00,94.94
1801.00,94.94
1800.00,94.94
1799.00,94.95
1798.00,94.97
1797.00,95.00
1796.00,95.02
1795.00,95.05
1794.00,95.07
1793.00,95.10
1792.00,95.14
1791.00,95.18
1790.00,95.21
1789.00,95.24
1788.00,95.26
1787.00,95.29
1786.00,95.31
1785.00,95.34
1784.00,95.35
1783.00,95.36
1782.00,95.36
1781.00,95.36
1780.00,95.36
1779.00,95.36
1778.00,95.37
1777.00,95.38
1776.00,95.39
1775.00,95.40
1774.00,95.40
1773.00,95.41
1772.00,95.41
1771.00,95.41
1770.00,95.41
1769.00,95.41
1768.00,95.41
1767.00,95.41
1766.00,95.41
1765.00,95.41
1764.00,95.41
1763.00,95.40
1762.00,95.39
1761.00,95.37
1760.00,95.35
1759.00,95.34
1758.00,95.32
1757.00,95.30
1756.00,95.28
1755.00,95.26
1754.00,95.24
1753.00,95.22
1752.00,95.21
1751.00,95.19
1750.00,95.17
1749.00,95.16
1748.00,95.15
1747.00,95.14
1746.00,95.14
1745.00,95.13
1744.00,95.14
1743.00,95.14
1742.00,95.15
1741.00,95.15
1740.00,95.16
1739.00,95.17
1738.00,95.18
1737.00,95.19
1736.00,95.21
1735.00,95.22
1734.00,95.24
1733.00,95.26
1732.00,95.27
1731.00,95.29
1730.00,95.30
1729.00,95.32
1728.00,95.33
1727.00,95.34
1726.00,95.35
1725.00,95.36
1724.00,95.36
1723.00,95.37
1722.00,95.38
1721.00,95.39
1720.00,95.39
1719.00,95.40
1718.00,95.41
1717.00,95.42
1716.00,95.43
1715.00,95.44
1714.00,95.45
1713.00,95.46
1712.00,95.45
1711.00,95.45
1710.00,95.45
1709.00,95.45
1708.00,95.45
1707.00,95.45
1706.00,95.45
1705.00,95.45
1704.00,95.45
1703.00,95.45
1702.00,95.46
1701.00,95.45
1700.00,95.45
1699.00,95.45
1698.00,95.46
1697.00,95.46
1696.00,95.46
1695.00,95.46
1694.00,95.45
1693.00,95.46
1692.00,95.46
1691.00,95.46
1690.00,95.45
1689.00,95.45
1688.00,95.44
1687.00,95.43
1686.00,95.42
1685.00,95.41
1684.00,95.40
1683.00,95.39
1682.00,95.38
1681.00,95.38
1680.00,95.37
1679.00,95.37
1678.00,95.37
1677.00,95.37
1676.00,95.36
1675.00,95.35
1674.00,95.34
1673.00,95.34
1672.00,95.33
1671.00,95.33
1670.00,95.33
1669.00,95.32
1668.00,95.32
1667.00,95.32
1666.00,95.32
1665.00,95.33
1664.00,95.34
1663.00,95.34
1662.00,95.35
1661.00,95.36
1660.00,95.37
1659.00,95.38
1658.00,95.40
1657.00,95.41
1656.00,95.42
1655.00,95.42
1654.00,95.43
1653.00,95.44
1652.00,95.45
1651.00,95.46
1650.00,95.47
1649.00,95.48
1648.00,95.49
1647.00,95.51
1646.00,95.52
1645.00,95.52
1644.00,95.53
1643.00,95.53
1642.00,95.54
1641.00,95.54
1640.00,95.55
1639.00,95.56
1638.00,95.57
1637.00,95.58
1636.00,95.59
1635.00,95.59
1634.00,95.59
1633.00,95.59
1632.00,95.59
1631.00,95.59
1630.00,95.59
1629.00,95.58
1628.00,95.58
1627.00,95.58
1626.00,95.57
1625.00,95.56
1624.00,95.55
1623.00,95.55
1622.00,95.54
1621.00,95.54
1620.00,95.54
1619.00,95.53
1618.00,95.52
1617.00,95.50
1616.00,95.47
1615.00,95.44
1614.00,95.40
1613.00,95.34
1612.00,95.25
1611.00,95.10
1610.00,94.89
1609.00,94.59
1608.00,94.19
1607.00,93.72
1606.00,93.18
1605.00,92.61
1604.00,92.05
1603.00,91.58
1602.00,91.30
1601.00,91.25
1600.00,91.41
1599.00,91.74
1598.00,92.16
1597.00,92.61
1596.00,93.01
1595.00,93.36
1594.00,93.63
1593.00,93.86
1592.00,94.03
1591.00,94.17
1590.00,94.27
1589.00,94.30
1588.00,94.26
1587.00,94.15
1586.00,94.00
1585.00,93.84
1584.00,93.73
1583.00,93.72
1582.00,93.84
1581.00,94.03
1580.00,94.24
1579.00,94.43
1578.00,94.59
1577.00,94.74
1576.00,94.85
1575.00,94.94
1574.00,94.99
1573.00,95.04
1572.00,95.08
1571.00,95.12
1570.00,95.17
1569.00,95.21
1568.00,95.24
1567.00,95.26
1566.00,95.28
1565.00,95.29
1564.00,95.31
1563.00,95.32
1562.00,95.33
1561.00,95.34
1560.00,95.34
1559.00,95.35
1558.00,95.35
1557.00,95.35
1556.00,95.34
1555.00,95.32
1554.00,95.31
1553.00,95.30
1552.00,95.28
1551.00,95.26
1550.00,95.25
1549.00,95.23
1548.00,95.21
1547.00,95.20
1546.00,95.19
1545.00,95.18
1544.00,95.17
1543.00,95.16
1542.00,95.16
1541.00,95.17
1540.00,95.18
1539.00,95.19
1538.00,95.20
1537.00,95.21
1536.00,95.23
1535.00,95.25
1534.00,95.28
1533.00,95.31
1532.00,95.34
1531.00,95.36
1530.00,95.38
1529.00,95.41
1528.00,95.43
1527.00,95.46
1526.00,95.48
1525.00,95.50
1524.00,95.51
1523.00,95.52
1522.00,95.53
1521.00,95.55
1520.00,95.56
1519.00,95.56
1518.00,95.57
1517.00,95.59
1516.00,95.59
1515.00,95.60
1514.00,95.60
1513.00,95.61
1512.00,95.61
1511.00,95.61
1510.00,95.62
1509.00,95.62
1508.00,95.61
1507.00,95.59
1506.00,95.55
1505.00,95.49
1504.00,95.42
1503.00,95.32
1502.00,95.16
1501.00,94.91
1500.00,94.49
1499.00,93.79
1498.00,92.61
1497.00,90.81
1496.00,88.61
1495.00,86.57
1494.00,85.12
1493.00,84.45
1492.00,84.66
1491.00,85.75
1490.00,87.39
1489.00,89.01
1488.00,90.27
1487.00,91.19
1486.00,91.89
1485.00,92.44
1484.00,92.88
1483.00,93.25
1482.00,93.57
1481.00,93.82
1480.00,94.01
1479.00,94.16
1478.00,94.29
1477.00,94.39
1476.00,94.48
1475.00,94.55
1474.00,94.62
1473.00,94.67
1472.00,94.72
1471.00,94.76
1470.00,94.79
1469.00,94.81
1468.00,94.82
1467.00,94.83
1466.00,94.84
1465.00,94.82
1464.00,94.78
1463.00,94.73
1462.00,94.65
1461.00,94.52
1460.00,94.30
1459.00,93.83
1458.00,92.78
1457.00,90.99
1456.00,88.96
1455.00,87.23
1454.00,85.85
1453.00,84.85
1452.00,84.37
1451.00,84.46
1450.00,84.97
1449.00,85.69
1448.00,86.45
1447.00,87.15
1446.00,87.74
1445.00,88.27
1444.00,88.80
1443.00,89.33
1442.00,89.82
1441.00,90.25
1440.00,90.62
1439.00,90.97
1438.00,91.33
1437.00,91.71
1436.00,92.08
1435.00,92.38
1434.00,92.62
1433.00,92.84
1432.00,93.05
1431.00,93.26
1430.00,93.44
1429.00,93.60
1428.00,93.73
1427.00,93.83
1426.00,93.92
1425.00,94.00
1424.00,94.07
1423.00,94.13
1422.00,94.17
1421.00,94.22
1420.00,94.26
1419.00,94.30
1418.00,94.33
1417.00,94.36
1416.00,94.39
1415.00,94.41
1414.00,94.43
1413.00,94.45
1412.00,94.47
1411.00,94.49
1410.00,94.50
1409.00,94.51
1408.00,94.53
1407.00,94.54
1406.00,94.55
1405.00,94.55
1404.00,94.56
1403.00,94.57
1402.00,94.57
1401.00,94.57
1400.00,94.57
1399.00,94.56
1398.00,94.55
1397.00,94.54
1396.00,94.53
1395.00,94.50
1394.00,94.46
1393.00,94.42
1392.00,94.38
1391.00,94.33
1390.00,94.27
1389.00,94.21
1388.00,94.13
1387.00,94.04
1386.00,93.96
1385.00,93.89
1384.00,93.82
1383.00,93.75
1382.00,93.67
1381.00,93.60
1380.00,93.53
1379.00,93.46
1378.00,93.39
1377.00,93.32
1376.00,93.25
1375.00,93.19
1374.00,93.13
1373.00,93.10
1372.00,93.08
1371.00,93.08
1370.00,93.09
1369.00,93.10
1368.00,93.11
1367.00,93.12
1366.00,93.13
1365.00,93.14
1364.00,93.16
1363.00,93.18
1362.00,93.20
1361.00,93.22
1360.00,93.24
1359.00,93.26
1358.00,93.27
1357.00,93.29
1356.00,93.31
1355.00,93.32
1354.00,93.33
1353.00,93.34
1352.00,93.34
1351.00,93.34
1350.00,93.34
1349.00,93.34
1348.00,93.34
1347.00,93.34
1346.00,93.36
1345.00,93.37
1344.00,93.40
1343.00,93.42
1342.00,93.45
1341.00,93.48
1340.00,93.51
1339.00,93.53
1338.00,93.53
1337.00,93.53
1336.00,93.53
1335.00,93.51
1334.00,93.48
1333.00,93.44
1332.00,93.39
1331.00,93.35
1330.00,93.31
1329.00,93.29
1328.00,93.29
1327.00,93.31
1326.00,93.33
1325.00,93.36
1324.00,93.39
1323.00,93.43
1322.00,93.45
1321.00,93.47
1320.00,93.48
1319.00,93.48
1318.00,93.48
1317.00,93.47
1316.00,93.45
1315.00,93.44
1314.00,93.42
1313.00,93.41
1312.00,93.42
1311.00,93.43
1310.00,93.45
1309.00,93.47
1308.00,93.49
1307.00,93.52
1306.00,93.55
1305.00,93.58
1304.00,93.62
1303.00,93.65
1302.00,93.69
1301.00,93.72
1300.00,93.74
1299.00,93.77
1298.00,93.79
1297.00,93.81
1296.00,93.83
1295.00,93.84
1294.00,93.85
1293.00,93.87
1292.00,93.88
1291.00,93.90
1290.00,93.92
1289.00,93.94
1288.00,93.96
1287.00,93.98
1286.00,93.99
1285.00,94.00
1284.00,94.01
1283.00,94.03
1282.00,94.04
1281.00,94.06
1280.00,94.08
1279.00,94.11
1278.00,94.13
1277.00,94.17
1276.00,94.21
1275.00,94.25
1274.00,94.29
1273.00,94.34
1272.00,94.38
1271.00,94.42
1270.00,94.46
1269.00,94.50
1268.00,94.54
1267.00,94.58
1266.00,94.62
1265.00,94.66
1264.00,94.70
1263.00,94.74
1262.00,94.78
1261.00,94.82
1260.00,94.87
1259.00,94.91
1258.00,94.95
1257.00,95.00
1256.00,95.04
1255.00,95.09
1254.00,95.14
1253.00,95.19
1252.00,95.24
1251.00,95.29
1250.00,95.34
1249.00,95.38
1248.00,95.42
1247.00,95.45
1246.00,95.48
1245.00,95.51
1244.00,95.54
1243.00,95.57
1242.00,95.60
1241.00,95.62
1240.00,95.63
1239.00,95.65
1238.00,95.65
1237.00,95.66
1236.00,95.66
1235.00,95.66
1234.00,95.65
1233.00,95.63
1232.00,95.61
1231.00,95.59
1230.00,95.57
1229.00,95.56
1228.00,95.54
1227.00,95.53
1226.00,95.51
1225.00,95.49
1224.00,95.48
1223.00,95.48
1222.00,95.47
1221.00,95.46
1220.00,95.44
1219.00,95.42
1218.00,95.40
1217.00,95.37
1216.00,95.34
1215.00,95.32
1214.00,95.29
1213.00,95.27
1212.00,95.24
1211.00,95.21
1210.00,95.19
1209.00,95.16
1208.00,95.12
1207.00,95.08
1206.00,95.04
1205.00,94.99
1204.00,94.95
1203.00,94.90
1202.00,94.85
1201.00,94.80
1200.00,94.76
1199.00,94.73
1198.00,94.69
1197.00,94.67
1196.00,94.64
1195.00,94.61
1194.00,94.59
1193.00,94.57
1192.00,94.56
1191.00,94.53
1190.00,94.50
1189.00,94.46
1188.00,94.39
1187.00,94.30
1186.00,94.19
1185.00,94.07
1184.00,93.95
1183.00,93.84
1182.00,93.76
1181.00,93.73
1180.00,93.75
1179.00,93.84
1178.00,93.96
1177.00,94.11
1176.00,94.25
1175.00,94.37
1174.00,94.45
1173.00,94.52
1172.00,94.56
1171.00,94.59
1170.00,94.61
1169.00,94.63
1168.00,94.64
1167.00,94.64
1166.00,94.63
1165.00,94.61
1164.00,94.58
1163.00,94.53
1162.00,94.46
1161.00,94.36
1160.00,94.24
1159.00,94.08
1158.00,93.91
1157.00,93.73
1156.00,93.59
1155.00,93.50
1154.00,93.49
1153.00,93.56
1152.00,93.69
1151.00,93.85
1150.00,94.03
1149.00,94.18
1148.00,94.31
1147.00,94.42
1146.00,94.50
1145.00,94.56
1144.00,94.62
1143.00,94.66
1142.00,94.70
1141.00,94.74
1140.00,94.77
1139.00,94.79
1138.00,94.82
1137.00,94.83
1136.00,94.85
1135.00,94.86
1134.00,94.87
1133.00,94.88
1132.00,94.88
1131.00,94.89
1130.00,94.89
1129.00,94.89
1128.00,94.88
1127.00,94.87
1126.00,94.87
1125.00,94.86
1124.00,94.85
1123.00,94.83
1122.00,94.81
1121.00,94.78
1120.00,94.74
1119.00,94.70
1118.00,94.66
1117.00,94.61
1116.00,94.57
1115.00,94.52
1114.00,94.49
1113.00,94.47
1112.00,94.45
1111.00,94.44
1110.00,94.44
1109.00,94.44
1108.00,94.44
1107.00,94.44
1106.00,94.44
1105.00,94.43
1104.00,94.43
1103.00,94.42
1102.00,94.40
1101.00,94.38
1100.00,94.35
1099.00,94.33
1098.00,94.31
1097.00,94.29
1096.00,94.27
1095.00,94.24
1094.00,94.21
1093.00,94.18
1092.00,94.15
1091.00,94.13
1090.00,94.10
1089.00,94.07
1088.00,94.03
1087.00,93.98
1086.00,93.93
1085.00,93.87
1084.00,93.81
1083.00,93.75
1082.00,93.68
1081.00,93.60
1080.00,93.52
1079.00,93.44
1078.00,93.36
1077.00,93.27
1076.00,93.16
1075.00,93.03
1074.00,92.90
1073.00,92.76
1072.00,92.64
1071.00,92.53
1070.00,92.44
1069.00,92.39
1068.00,92.38
1067.00,92.40
1066.00,92.47
1065.00,92.56
1064.00,92.67
1063.00,92.79
1062.00,92.91
1061.00,93.02
1060.00,93.13
1059.00,93.22
1058.00,93.31
1057.00,93.39
1056.00,93.46
1055.00,93.53
1054.00,93.58
1053.00,93.64
1052.00,93.69
1051.00,93.74
1050.00,93.78
1049.00,93.83
1048.00,93.87
1047.00,93.90
1046.00,93.94
1045.00,93.97
1044.00,93.99
1043.00,94.01
1042.00,94.02
1041.00,93.99
1040.00,93.94
1039.00,93.85
1038.00,93.71
1037.00,93.51
1036.00,93.21
1035.00,92.82
1034.00,92.33
1033.00,91.79
1032.00,91.24
1031.00,90.73
1030.00,90.32
1029.00,90.04
1028.00,89.92
1027.00,89.99
1026.00,90.21
1025.00,90.52
1024.00,90.85
1023.00,91.16
1022.00,91.44
1021.00,91.66
1020.00,91.86
1019.00,92.02
1018.00,92.16
1017.00,92.29
1016.00,92.41
1015.00,92.51
1014.00,92.59
1013.00,92.66
1012.00,92.72
1011.00,92.78
1010.00,92.82
1009.00,92.85
1008.00,92.86
1007.00,92.84
1006.00,92.78
1005.00,92.73
1004.00,92.69
1003.00,92.70
1002.00,92.76
1001.00,92.88
1000.00,93.02
999.00,93.15
998.00,93.26
997.00,93.34
996.00,93.39
995.00,93.42
994.00,93.44
993.00,93.45
992.00,93.44
991.00,93.43
990.00,93.42
989.00,93.40
988.00,93.37
987.00,93.32
986.00,93.27
985.00,93.21
984.00,93.15
983.00,93.09
982.00,93.04
981.00,93.00
980.00,92.98
979.00,92.98
978.00,93.00
977.00,93.03
976.00,93.08
975.00,93.13
974.00,93.17
973.00,93.20
972.00,93.20
971.00,93.17
970.00,93.12
969.00,93.05
968.00,92.97
967.00,92.90
966.00,92.84
965.00,92.80
964.00,92.78
963.00,92.79
962.00,92.83
961.00,92.90
960.00,92.99
959.00,93.09
958.00,93.19
957.00,93.27
956.00,93.35
955.00,93.41
954.00,93.45
953.00,93.48
952.00,93.50
951.00,93.51
950.00,93.51
949.00,93.51
948.00,93.50
947.00,93.49
946.00,93.47
945.00,93.45
944.00,93.44
943.00,93.43
942.00,93.44
941.00,93.46
940.00,93.49
939.00,93.53
938.00,93.58
937.00,93.63
936.00,93.69
935.00,93.75
934.00,93.80
933.00,93.85
932.00,93.88
931.00,93.90
930.00,93.92
929.00,93.94
928.00,93.96
927.00,93.97
926.00,93.98
925.00,93.98
924.00,93.97
923.00,93.95
922.00,93.93
921.00,93.91
920.00,93.87
919.00,93.81
918.00,93.73
917.00,93.62
916.00,93.49
915.00,93.33
914.00,93.14
913.00,92.91
912.00,92.66
911.00,92.39
910.00,92.13
909.00,91.88
908.00,91.67
907.00,91.51
906.00,91.42
905.00,91.41
904.00,91.48
903.00,91.62
902.00,91.81
901.00,92.05
900.00,92.31
899.00,92.57
898.00,92.81
897.00,93.02
896.00,93.19
895.00,93.34
894.00,93.45
893.00,93.53
892.00,93.60
891.00,93.66
890.00,93.71
889.00,93.76
888.00,93.81
887.00,93.85
886.00,93.90
885.00,93.94
884.00,93.98
883.00,94.01
882.00,94.03
881.00,94.04
880.00,94.06
879.00,94.07
878.00,94.09
877.00,94.11
876.00,94.13
875.00,94.15
874.00,94.16
873.00,94.18
872.00,94.20
871.00,94.22
870.00,94.24
869.00,94.24
868.00,94.24
867.00,94.25
866.00,94.25
865.00,94.26
864.00,94.27
863.00,94.28
862.00,94.29
861.00,94.30
860.00,94.31
859.00,94.32
858.00,94.33
857.00,94.33
856.00,94.31
855.00,94.28
854.00,94.25
853.00,94.21
852.00,94.16
851.00,94.10
850.00,94.01
849.00,93.91
848.00,93.80
847.00,93.68
846.00,93.56
845.00,93.45
844.00,93.37
843.00,93.31
842.00,93.28
841.00,93.27
840.00,93.29
839.00,93.33
838.00,93.39
837.00,93.49
836.00,93.61
835.00,93.74
834.00,93.88
833.00,94.00
832.00,94.11
831.00,94.20
830.00,94.28
829.00,94.34
828.00,94.40
827.00,94.45
826.00,94.48
825.00,94.49
824.00,94.51
823.00,94.52
822.00,94.54
821.00,94.56
820.00,94.57
819.00,94.58
818.00,94.59
817.00,94.61
816.00,94.63
815.00,94.65
814.00,94.66
813.00,94.67
812.00,94.68
811.00,94.69
810.00,94.70
809.00,94.70
808.00,94.70
807.00,94.71
806.00,94.72
805.00,94.72
804.00,94.73
803.00,94.73
802.00,94.72
801.00,94.72
800.00,94.71
799.00,94.69
798.00,94.68
797.00,94.65
796.00,94.62
795.00,94.58
794.00,94.53
793.00,94.48
792.00,94.41
791.00,94.34
790.00,94.26
789.00,94.18
788.00,94.10
787.00,94.00
786.00,93.90
785.00,93.78
784.00,93.64
783.00,93.50
782.00,93.33
781.00,93.14
780.00,92.90
779.00,92.63
778.00,92.32
777.00,91.96
776.00,91.57
775.00,91.13
774.00,90.65
773.00,90.13
772.00,89.56
771.00,88.95
770.00,88.29
769.00,87.61
768.00,86.91
767.00,86.22
766.00,85.53
765.00,84.84
764.00,84.12
763.00,83.39
762.00,82.63
761.00,81.87
760.00,81.11
759.00,80.38
758.00,79.73
757.00,79.17
756.00,78.74
755.00,78.45
754.00,78.28
753.00,78.21
752.00,78.21
751.00,78.25
750.00,78.32
749.00,78.42
748.00,78.57
747.00,78.83
746.00,79.23
745.00,79.80
744.00,80.53
743.00,81.39
742.00,82.32
741.00,83.26
740.00,84.16
739.00,85.00
738.00,85.80
737.00,86.55
736.00,87.28
735.00,88.01
734.00,88.74
733.00,89.46
732.00,90.14
731.00,90.76
730.00,91.31
729.00,91.78
728.00,92.17
727.00,92.51
726.00,92.81
725.00,93.07
724.00,93.30
723.00,93.50
722.00,93.67
721.00,93.83
720.00,93.97
719.00,94.09
718.00,94.17
717.00,94.22
716.00,94.21
715.00,94.15
714.00,93.99
713.00,93.70
712.00,93.21
711.00,92.47
710.00,91.42
709.00,90.01
708.00,88.23
707.00,86.08
706.00,83.55
705.00,80.69
704.00,77.54
703.00,74.16
702.00,70.61
701.00,66.97
700.00,63.30
699.00,59.71
698.00,56.34
697.00,53.46
696.00,51.42
695.00,50.60
694.00,51.24
693.00,53.27
692.00,56.34
691.00,59.94
690.00,63.59
689.00,66.97
688.00,69.89
687.00,72.32
686.00,74.29
685.00,75.92
684.00,77.26
683.00,78.38
682.00,79.33
681.00,80.14
680.00,80.84
679.00,81.47
678.00,82.03
677.00,82.52
676.00,82.95
675.00,83.33
674.00,83.67
673.00,83.96
672.00,84.21
671.00,84.44
670.00,84.69
669.00,85.01
668.00,85.37
667.00,85.64
666.00,85.81
665.00,85.97
664.00,86.15
663.00,86.34
662.00,86.53
661.00,86.73
660.00,86.92
659.00,87.11
658.00,87.29
657.00,87.47
656.00,87.64
655.00,87.81
654.00,87.98
653.00,88.13
652.00,88.24
651.00,88.32
650.00,88.38
