Created as New Dataset,Sample 001 By Administrator Date Wednesday, May 03 2023
cm-1,A
4000.00,-0.0012
3999.00,-0.0012
3998.00,-0.0012
3997.00,-0.0012
3996.00,-0.0013
3995.00,-0.0013
3994.00,-0.0013
3993.00,-0.0013
3992.00,-0.0013
3991.00,-0.0013
3990.00,-0.0013
3989.00,-0.0013
3988.00,-0.0013
3987.00,-0.0013
3986.00,-0.0013
3985.00,-0.0013
3984.00,-0.0012
3983.00,-0.0012
3982.00,-0.0011
3981.00,-0.0012
3980.00,-0.0012
3979.00,-0.0012
3978.00,-0.0012
3977.00,-0.0012
3976.00,-0.0012
3975.00,-0.0012
3974.00,-0.0012
3973.00,-0.0012
3972.00,-0.0013
3971.00,-0.0013
3970.00,-0.0013
3969.00,-0.0013
3968.00,-0.0013
3967.00,-0.0013
3966.00,-0.0013
3965.00,-0.0013
3964.00,-0.0013
3963.00,-0.0013
3962.00,-0.0013
3961.00,-0.0013
3960.00,-0.0013
3959.00,-0.0013
3958.00,-0.0012
3957.00,-0.0012
3956.00,-0.0012
3955.00,-0.0012
3954.00,-0.0012
3953.00,-0.0013
3952.00,-0.0012
3951.00,-0.0012
3950.00,-0.0012
3949.00,-0.0012
3948.00,-0.0012
3947.00,-0.0012
3946.00,-0.0012
3945.00,-0.0012
3944.00,-0.0012
3943.00,-0.0012
3942.00,-0.0012
3941.00,-0.0012
3940.00,-0.0012
3939.00,-0.0013
3938.00,-0.0013
3937.00,-0.0012
3936.00,-0.0012
3935.00,-0.0012
3934.00,-0.0011
3933.00,-0.0011
3932.00,-0.0011
3931.00,-0.0010
3930.00,-0.0010
3929.00,-0.0011
3928.00,-0.0011
3927.00,-0.0011
3926.00,-0.0011
3925.00,-0.0011
3924.00,-0.0011
3923.00,-0.0011
3922.00,-0.0011
3921.00,-0.0011
3920.00,-0.0011
3919.00,-0.0011
3918.00,-0.0011
3917.00,-0.0011
3916.00,-0.0012
3915.00,-0.0012
3914.00,-0.0012
3913.00,-0.0012
3912.00,-0.0012
3911.00,-0.0012
3910.00,-0.0012
3909.00,-0.0012
3908.00,-0.0012
3907.00,-0.0011
3906.00,-0.0011
3905.00,-0.0010
3904.00,-0.0010
3903.00,-0.0010
3902.00,-0.0010
3901.00,-0.0010
3900.00,-0.0011
3899.00,-0.0011
3898.00,-0.0011
3897.00,-0.0011
3896.00,-0.0011
3895.00,-0.0011
3894.00,-0.0011
3893.00,-0.0011
3892.00,-0.0010
3891.00,-0.0010
3890.00,-0.0010
3889.00,-0.0010
3888.00,-0.0010
3887.00,-0.0010
3886.00,-0.0010
3885.00,-0.0010
3884.00,-0.0011
3883.00,-0.0011
3882.00,-0.0012
3881.00,-0.0012
3880.00,-0.0012
3879.00,-0.0012
3878.00,-0.0012
3877.00,-0.0011
3876.00,-0.0011
3875.00,-0.0011
3874.00,-0.0011
3873.00,-0.0010
3872.00,-0.0010
3871.00,-0.0010
3870.00,-0.0010
3869.00,-0.0010
3868.00,-0.0011
3867.00,-0.0011
3866.00,-0.0012
3865.00,-0.0012
3864.00,-0.0012
3863.00,-0.0011
3862.00,-0.0011
3861.00,-0.0011
3860.00,-0.0010
3859.00,-0.0009
3858.00,-0.0009
3857.00,-0.0008
3856.00,-0.0008
3855.00,-0.0008
3854.00,-0.0008
3853.00,-0.0008
3852.00,-0.0009
3851.00,-0.0009
3850.00,-0.0010
3849.00,-0.0011
3848.00,-0.0012
3847.00,-0.0012
3846.00,-0.0012
3845.00,-0.0011
3844.00,-0.0011
3843.00,-0.0010
3842.00,-0.0009
3841.00,-0.0009
3840.00,-0.0009
3839.00,-0.0009
3838.00,-0.0009
3837.00,-0.0009
3836.00,-0.0009
3835.00,-0.0009
3834.00,-0.0010
3833.00,-0.0010
3832.00,-0.0010
3831.00,-0.0011
3830.00,-0.0011
3829.00,-0.0011
3828.00,-0.0011
3827.00,-0.0011
3826.00,-0.0011
3825.00,-0.0011
3824.00,-0.0011
3823.00,-0.0011
3822.00,-0.0011
3821.00,-0.0011
3820.00,-0.0010
3819.00,-0.0010
3818.00,-0.0010
3817.00,-0.0009
3816.00,-0.0009
3815.00,-0.0010
3814.00,-0.0010
3813.00,-0.0010
3812.00,-0.0010
3811.00,-0.0010
3810.00,-0.0010
3809.00,-0.0011
3808.00,-0.0011
3807.00,-0.0011
3806.00,-0.0010
3805.00,-0.0010
3804.00,-0.0009
3803.00,-0.0009
3802.00,-0.0009
3801.00,-0.0009
3800.00,-0.0010
3799.00,-0.0010
3798.00,-0.0011
3797.00,-0.0011
3796.00,-0.0011
3795.00,-0.0012
3794.00,-0.0012
3793.00,-0.0012
3792.00,-0.0012
3791.00,-0.0012
3790.00,-0.0012
3789.00,-0.0012
3788.00,-0.0012
3787.00,-0.0012
3786.00,-0.0011
3785.00,-0.0011
3784.00,-0.0011
3783.00,-0.0011
3782.00,-0.0011
3781.00,-0.0011
3780.00,-0.0011
3779.00,-0.0011
3778.00,-0.0011
3777.00,-0.0012
3776.00,-0.0012
3775.00,-0.0012
3774.00,-0.0011
3773.00,-0.0011
3772.00,-0.0012
3771.00,-0.0012
3770.00,-0.0012
3769.00,-0.0011
3768.00,-0.0011
3767.00,-0.0011
3766.00,-0.0010
3765.00,-0.0010
3764.00,-0.0010
3763.00,-0.0011
3762.00,-0.0011
3761.00,-0.0011
3760.00,-0.0011
3759.00,-0.0011
3758.00,-0.0011
3757.00,-0.0011
3756.00,-0.0010
3755.00,-0.0010
3754.00,-0.0009
3753.00,-0.0009
3752.00,-0.0008
3751.00,-0.0008
3750.00,-0.0008
3749.00,-0.0007
3748.00,-0.0007
3747.00,-0.0007
3746.00,-0.0008
3745.00,-0.0008
3744.00,-0.0008
3743.00,-0.0009
3742.00,-0.0009
3741.00,-0.0010
3740.00,-0.0010
3739.00,-0.0010
3738.00,-0.0010
3737.00,-0.0010
3736.00,-0.0010
3735.00,-0.0009
3734.00,-0.0009
3733.00,-0.0009
3732.00,-0.0010
3731.00,-0.0010
3730.00,-0.0010
3729.00,-0.0010
3728.00,-0.0010
3727.00,-0.0010
3726.00,-0.0011
3725.00,-0.0011
3724.00,-0.0011
3723.00,-0.0011
3722.00,-0.0011
3721.00,-0.0010
3720.00,-0.0010
3719.00,-0.0011
3718.00,-0.0011
3717.00,-0.0011
3716.00,-0.0011
3715.00,-0.0011
3714.00,-0.0011
3713.00,-0.0011
3712.00,-0.0011
3711.00,-0.0011
3710.00,-0.0011
3709.00,-0.0012
3708.00,-0.0012
3707.00,-0.0011
3706.00,-0.0011
3705.00,-0.0011
3704.00,-0.0011
3703.00,-0.0011
3702.00,-0.0011
3701.00,-0.0011
3700.00,-0.0011
3699.00,-0.0011
3698.00,-0.0011
3697.00,-0.0011
3696.00,-0.0011
3695.00,-0.0011
3694.00,-0.0011
3693.00,-0.0010
3692.00,-0.0010
3691.00,-0.0009
3690.00,-0.0009
3689.00,-0.0009
3688.00,-0.0009
3687.00,-0.0010
3686.00,-0.0010
3685.00,-0.0010
3684.00,-0.0010
3683.00,-0.0010
3682.00,-0.0010
3681.00,-0.0010
3680.00,-0.0010
3679.00,-0.0009
3678.00,-0.0009
3677.00,-0.0009
3676.00,-0.0009
3675.00,-0.0008
3674.00,-0.0008
3673.00,-0.0008
3672.00,-0.0008
3671.00,-0.0009
3670.00,-0.0009
3669.00,-0.0009
3668.00,-0.0010
3667.00,-0.0010
3666.00,-0.0010
3665.00,-0.0010
3664.00,-0.0010
3663.00,-0.0010
3662.00,-0.0010
3661.00,-0.0010
3660.00,-0.0011
3659.00,-0.0011
3658.00,-0.0011
3657.00,-0.0011
3656.00,-0.0011
3655.00,-0.0010
3654.00,-0.0010
3653.00,-0.0010
3652.00,-0.0009
3651.00,-0.0009
3650.00,-0.0009
3649.00,-0.0009
3648.00,-0.0009
3647.00,-0.0010
3646.00,-0.0011
3645.00,-0.0011
3644.00,-0.0012
3643.00,-0.0012
3642.00,-0.0012
3641.00,-0.0011
3640.00,-0.0011
3639.00,-0.0011
3638.00,-0.0011
3637.00,-0.0011
3636.00,-0.0011
3635.00,-0.0012
3634.00,-0.0011
3633.00,-0.0011
3632.00,-0.0010
3631.00,-0.0010
3630.00,-0.0010
3629.00,-0.0010
3628.00,-0.0010
3627.00,-0.0010
3626.00,-0.0011
3625.00,-0.0011
3624.00,-0.0011
3623.00,-0.0011
3622.00,-0.0011
3621.00,-0.0010
3620.00,-0.0010
3619.00,-0.0010
3618.00,-0.0010
3617.00,-0.0010
3616.00,-0.0010
3615.00,-0.0010
3614.00,-0.0010
3613.00,-0.0010
3612.00,-0.0010
3611.00,-0.0010
3610.00,-0.0009
3609.00,-0.0009
3608.00,-0.0010
3607.00,-0.0010
3606.00,-0.0011
3605.00,-0.0011
3604.00,-0.0011
3603.00,-0.0012
3602.00,-0.0012
3601.00,-0.0012
3600.00,-0.0012
3599.00,-0.0012
3598.00,-0.0011
3597.00,-0.0011
3596.00,-0.0011
3595.00,-0.0011
3594.00,-0.0011
3593.00,-0.0011
3592.00,-0.0011
3591.00,-0.0011
3590.00,-0.0010
3589.00,-0.0010
3588.00,-0.0010
3587.00,-0.0009
3586.00,-0.0010
3585.00,-0.0010
3584.00,-0.0011
3583.00,-0.0011
3582.00,-0.0011
3581.00,-0.0011
3580.00,-0.0010
3579.00,-0.0010
3578.00,-0.0011
3577.00,-0.0011
3576.00,-0.0011
3575.00,-0.0011
3574.00,-0.0011
3573.00,-0.0011
3572.00,-0.0011
3571.00,-0.0010
3570.00,-0.0010
3569.00,-0.0010
3568.00,-0.0009
3567.00,-0.0009
3566.00,-0.0010
3565.00,-0.0010
3564.00,-0.0010
3563.00,-0.0011
3562.00,-0.0010
3561.00,-0.0010
3560.00,-0.0010
3559.00,-0.0010
3558.00,-0.0010
3557.00,-0.0010
3556.00,-0.0011
3555.00,-0.0011
3554.00,-0.0011
3553.00,-0.0011
3552.00,-0.0010
3551.00,-0.0010
3550.00,-0.0010
3549.00,-0.0009
3548.00,-0.0009
3547.00,-0.0009
3546.00,-0.0009
3545.00,-0.0009
3544.00,-0.0009
3543.00,-0.0009
3542.00,-0.0009
3541.00,-0.0009
3540.00,-0.0009
3539.00,-0.0009
3538.00,-0.0009
3537.00,-0.0009
3536.00,-0.0009
3535.00,-0.0009
3534.00,-0.0009
3533.00,-0.0009
3532.00,-0.0009
3531.00,-0.0009
3530.00,-0.0009
3529.00,-0.0009
3528.00,-0.0009
3527.00,-0.0009
3526.00,-0.0009
3525.00,-0.0010
3524.00,-0.0010
3523.00,-0.0009
3522.00,-0.0009
3521.00,-0.0009
3520.00,-0.0009
3519.00,-0.0009
3518.00,-0.0009
3517.00,-0.0009
3516.00,-0.0009
3515.00,-0.0008
3514.00,-0.0008
3513.00,-0.0008
3512.00,-0.0007
3511.00,-0.0008
3510.00,-0.0008
3509.00,-0.0008
3508.00,-0.0008
3507.00,-0.0008
3506.00,-0.0009
3505.00,-0.0009
3504.00,-0.0009
3503.00,-0.0009
3502.00,-0.0009
3501.00,-0.0008
3500.00,-0.0008
3499.00,-0.0008
3498.00,-0.0008
3497.00,-0.0008
3496.00,-0.0008
3495.00,-0.0008
3494.00,-0.0008
3493.00,-0.0008
3492.00,-0.0007
3491.00,-0.0007
3490.00,-0.0008
3489.00,-0.0008
3488.00,-0.0008
3487.00,-0.0008
3486.00,-0.0008
3485.00,-0.0007
3484.00,-0.0007
3483.00,-0.0007
3482.00,-0.0007
3481.00,-0.0007
3480.00,-0.0007
3479.00,-0.0007
3478.00,-0.0006
3477.00,-0.0006
3476.00,-0.0005
3475.00,-0.0005
3474.00,-0.0005
3473.00,-0.0005
3472.00,-0.0005
3471.00,-0.0005
3470.00,-0.0005
3469.00,-0.0006
3468.00,-0.0006
3467.00,-0.0006
3466.00,-0.0006
3465.00,-0.0006
3464.00,-0.0006
3463.00,-0.0005
3462.00,-0.0005
3461.00,-0.0005
3460.00,-0.0005
3459.00,-0.0005
3458.00,-0.0005
3457.00,-0.0005
3456.00,-0.0005
3455.00,-0.0005
3454.00,-0.0004
3453.00,-0.0004
3452.00,-0.0004
3451.00,-0.0004
3450.00,-0.0004
3449.00,-0.0004
3448.00,-0.0004
3447.00,-0.0004
3446.00,-0.0004
3445.00,-0.0004
3444.00,-0.0005
3443.00,-0.0005
3442.00,-0.0005
3441.00,-0.0005
3440.00,-0.0005
3439.00,-0.0005
3438.00,-0.0004
3437.00,-0.0004
3436.00,-0.0004
3435.00,-0.0005
3434.00,-0.0004
3433.00,-0.0004
3432.00,-0.0004
3431.00,-0.0003
3430.00,-0.0003
3429.00,-0.0004
3428.00,-0.0004
3427.00,-0.0003
3426.00,-0.0003
3425.00,-0.0003
3424.00,-0.0003
3423.00,-0.0003
3422.00,-0.0004
3421.00,-0.0004
3420.00,-0.0004
3419.00,-0.0004
3418.00,-0.0004
3417.00,-0.0004
3416.00,-0.0004
3415.00,-0.0004
3414.00,-0.0004
3413.00,-0.0004
3412.00,-0.0004
3411.00,-0.0004
3410.00,-0.0004
3409.00,-0.0004
3408.00,-0.0004
3407.00,-0.0004
3406.00,-0.0004
3405.00,-0.0003
3404.00,-0.0003
3403.00,-0.0003
3402.00,-0.0003
3401.00,-0.0003
3400.00,-0.0003
3399.00,-0.0003
3398.00,-0.0004
3397.00,-0.0004
3396.00,-0.0003
3395.00,-0.0003
3394.00,-0.0003
3393.00,-0.0003
3392.00,-0.0002
3391.00,-0.0002
3390.00,-0.0002
3389.00,-0.0002
3388.00,-0.0002
3387.00,-0.0002
3386.00,-0.0002
3385.00,-0.0002
3384.00,-0.0003
3383.00,-0.0003
3382.00,-0.0003
3381.00,-0.0003
3380.00,-0.0002
3379.00,-0.0002
3378.00,-0.0002
3377.00,-0.0002
3376.00,-0.0002
3375.00,-0.0002
3374.00,-0.0001
3373.00,-0.0001
3372.00,-0.0001
3371.00,-0.0001
3370.00,-0.0001
3369.00,-0.0001
3368.00,-0.0001
3367.00,-0.0001
3366.00,-0.0002
3365.00,-0.0002
3364.00,-0.0002
3363.00,-0.0001
3362.00,-0.0001
3361.00,-0.0001
3360.00,-0.0001
3359.00,-0.0001
3358.00,-0.0001
3357.00,-0.0001
3356.00,-0.0001
3355.00,-0.0000
3354.00,-0.0000
3353.00,-0.0000
3352.00,-0.0000
3351.00,-0.0000
3350.00,-0.0000
3349.00,0.0000
3348.00,0.0000
3347.00,0.0000
3346.00,0.0000
3345.00,0.0000
3344.00,0.0000
3343.00,0.0000
3342.00,0.0000
3341.00,0.0001
3340.00,0.0001
3339.00,0.0001
3338.00,0.0001
3337.00,0.0001
3336.00,0.0001
3335.00,0.0001
3334.00,0.0001
3333.00,0.0001
3332.00,0.0002
3331.00,0.0001
3330.00,0.0001
3329.00,0.0001
3328.00,0.0001
3327.00,0.0001
3326.00,0.0001
3325.00,0.0001
3324.00,0.0002
3323.00,0.0002
3322.00,0.0003
3321.00,0.0003
3320.00,0.0002
3319.00,0.0002
3318.00,0.0001
3317.00,0.0001
3316.00,0.0001
3315.00,0.0001
3314.00,0.0001
3313.00,0.0001
3312.00,0.0001
3311.00,0.0002
3310.00,0.0002
3309.00,0.0002
3308.00,0.0002
3307.00,0.0002
3306.00,0.0002
3305.00,0.0002
3304.00,0.0002
3303.00,0.0003
3302.00,0.0003
3301.00,0.0003
3300.00,0.0002
3299.00,0.0003
3298.00,0.0003
3297.00,0.0003
3296.00,0.0003
3295.00,0.0002
3294.00,0.0002
3293.00,0.0001
3292.00,0.0001
3291.00,0.0002
3290.00,0.0002
3289.00,0.0002
3288.00,0.0002
3287.00,0.0002
3286.00,0.0001
3285.00,0.0001
3284.00,0.0001
3283.00,0.0001
3282.00,0.0001
3281.00,0.0001
3280.00,0.0001
3279.00,0.0001
3278.00,0.0001
3277.00,0.0001
3276.00,0.0001
3275.00,0.0001
3274.00,0.0001
3273.00,0.0001
3272.00,0.0000
3271.00,0.0000
3270.00,-0.0000
3269.00,-0.0000
3268.00,-0.0000
3267.00,-0.0000
3266.00,0.0000
3265.00,0.0001
3264.00,0.0001
3263.00,0.0001
3262.00,0.0001
3261.00,0.0001
3260.00,0.0001
3259.00,0.0002
3258.00,0.0001
3257.00,0.0001
3256.00,0.0001
3255.00,0.0001
3254.00,0.0001
3253.00,0.0001
3252.00,0.0001
3251.00,0.0001
3250.00,0.0001
3249.00,0.0001
3248.00,0.0001
3247.00,0.0001
3246.00,0.0002
3245.00,0.0002
3244.00,0.0002
3243.00,0.0002
3242.00,0.0002
3241.00,0.0002
3240.00,0.0002
3239.00,0.0002
3238.00,0.0002
3237.00,0.0002
3236.00,0.0002
3235.00,0.0002
3234.00,0.0002
3233.00,0.0002
3232.00,0.0001
3231.00,0.0001
3230.00,0.0000
3229.00,0.0000
3228.00,0.0001
3227.00,0.0001
3226.00,0.0001
3225.00,0.0001
3224.00,0.0001
3223.00,0.0001
3222.00,0.0001
3221.00,0.0001
3220.00,0.0001
3219.00,0.0001
3218.00,0.0001
3217.00,0.0001
3216.00,0.0001
3215.00,0.0001
3214.00,0.0001
3213.00,0.0001
3212.00,0.0001
3211.00,0.0001
3210.00,0.0001
3209.00,0.0000
3208.00,0.0000
3207.00,0.0000
3206.00,0.0000
3205.00,0.0000
3204.00,-0.0000
3203.00,-0.0000
3202.00,-0.0000
3201.00,-0.0000
3200.00,-0.0000
3199.00,-0.0000
3198.00,-0.0001
3197.00,-0.0001
3196.00,-0.0001
3195.00,-0.0001
3194.00,-0.0001
3193.00,-0.0000
3192.00,-0.0000
3191.00,-0.0000
3190.00,-0.0001
3189.00,-0.0001
3188.00,-0.0001
3187.00,-0.0001
3186.00,-0.0001
3185.00,-0.0001
3184.00,-0.0001
3183.00,-0.0001
3182.00,-0.0001
3181.00,-0.0001
3180.00,-0.0001
3179.00,-0.0001
3178.00,-0.0001
3177.00,-0.0001
3176.00,-0.0002
3175.00,-0.0002
3174.00,-0.0002
3173.00,-0.0002
3172.00,-0.0002
3171.00,-0.0002
3170.00,-0.0003
3169.00,-0.0003
3168.00,-0.0003
3167.00,-0.0003
3166.00,-0.0002
3165.00,-0.0002
3164.00,-0.0002
3163.00,-0.0002
3162.00,-0.0002
3161.00,-0.0003
3160.00,-0.0003
3159.00,-0.0003
3158.00,-0.0003
3157.00,-0.0003
3156.00,-0.0003
3155.00,-0.0003
3154.00,-0.0003
3153.00,-0.0003
3152.00,-0.0004
3151.00,-0.0004
3150.00,-0.0004
3149.00,-0.0003
3148.00,-0.0003
3147.00,-0.0003
3146.00,-0.0004
3145.00,-0.0004
3144.00,-0.0004
3143.00,-0.0005
3142.00,-0.0005
3141.00,-0.0005
3140.00,-0.0005
3139.00,-0.0004
3138.00,-0.0004
3137.00,-0.0004
3136.00,-0.0004
3135.00,-0.0004
3134.00,-0.0004
3133.00,-0.0003
3132.00,-0.0004
3131.00,-0.0004
3130.00,-0.0004
3129.00,-0.0004
3128.00,-0.0004
3127.00,-0.0004
3126.00,-0.0004
3125.00,-0.0004
3124.00,-0.0004
3123.00,-0.0004
3122.00,-0.0003
3121.00,-0.0004
3120.00,-0.0004
3119.00,-0.0004
3118.00,-0.0004
3117.00,-0.0004
3116.00,-0.0003
3115.00,-0.0003
3114.00,-0.0002
3113.00,-0.0002
3112.00,-0.0002
3111.00,-0.0001
3110.00,-0.0001
3109.00,0.0000
3108.00,0.0001
3107.00,0.0001
3106.00,0.0002
3105.00,0.0002
3104.00,0.0003
3103.00,0.0003
3102.00,0.0003
3101.00,0.0003
3100.00,0.0002
3099.00,0.0002
3098.00,0.0002
3097.00,0.0002
3096.00,0.0002
3095.00,0.0003
3094.00,0.0003
3093.00,0.0004
3092.00,0.0005
3091.00,0.0006
3090.00,0.0008
3089.00,0.0010
3088.00,0.0012
3087.00,0.0015
3086.00,0.0017
3085.00,0.0019
3084.00,0.0020
3083.00,0.0021
3082.00,0.0022
3081.00,0.0021
3080.00,0.0020
3079.00,0.0019
3078.00,0.0017
3077.00,0.0016
3076.00,0.0015
3075.00,0.0014
3074.00,0.0014
3073.00,0.0014
3072.00,0.0014
3071.00,0.0014
3070.00,0.0015
3069.00,0.0017
3068.00,0.0019
3067.00,0.0021
3066.00,0.0023
3065.00,0.0026
3064.00,0.0028
3063.00,0.0030
3062.00,0.0032
3061.00,0.0034
3060.00,0.0035
3059.00,0.0034
3058.00,0.0033
3057.00,0.0032
3056.00,0.0029
3055.00,0.0027
3054.00,0.0024
3053.00,0.0022
3052.00,0.0019
3051.00,0.0018
3050.00,0.0016
3049.00,0.0015
3048.00,0.0014
3047.00,0.0013
3046.00,0.0012
3045.00,0.0012
3044.00,0.0012
3043.00,0.0013
3042.00,0.0014
3041.00,0.0015
3040.00,0.0016
3039.00,0.0018
3038.00,0.0020
3037.00,0.0022
3036.00,0.0025
3035.00,0.0029
3034.00,0.0034
3033.00,0.0039
3032.00,0.0045
3031.00,0.0051
3030.00,0.0057
3029.00,0.0063
3028.00,0.0068
3027.00,0.0072
3026.00,0.0074
3025.00,0.0074
3024.00,0.0072
3023.00,0.0068
3022.00,0.0062
3021.00,0.0056
3020.00,0.0049
3019.00,0.0042
3018.00,0.0036
3017.00,0.0031
3016.00,0.0027
3015.00,0.0023
3014.00,0.0019
3013.00,0.0017
3012.00,0.0015
3011.00,0.0013
3010.00,0.0013
3009.00,0.0013
3008.00,0.0013
3007.00,0.0013
3006.00,0.0014
3005.00,0.0014
3004.00,0.0015
3003.00,0.0016
3002.00,0.0017
3001.00,0.0016
3000.00,0.0015
2999.00,0.0014
2998.00,0.0013
2997.00,0.0011
2996.00,0.0010
2995.00,0.0009
2994.00,0.0007
2993.00,0.0006
2992.00,0.0006
2991.00,0.0005
2990.00,0.0005
2989.00,0.0005
2988.00,0.0005
2987.00,0.0005
2986.00,0.0005
2985.00,0.0005
2984.00,0.0005
2983.00,0.0006
2982.00,0.0006
2981.00,0.0006
2980.00,0.0006
2979.00,0.0007
2978.00,0.0008
2977.00,0.0009
2976.00,0.0010
2975.00,0.0010
2974.00,0.0011
2973.00,0.0012
2972.00,0.0013
2971.00,0.0015
2970.00,0.0016
2969.00,0.0018
2968.00,0.0020
2967.00,0.0022
2966.00,0.0023
2965.00,0.0025
2964.00,0.0027
2963.00,0.0030
2962.00,0.0032
2961.00,0.0034
2960.00,0.0036
2959.00,0.0039
2958.00,0.0041
2957.00,0.0043
2956.00,0.0044
2955.00,0.0045
2954.00,0.0045
2953.00,0.0045
2952.00,0.0045
2951.00,0.0045
2950.00,0.0045
2949.00,0.0046
2948.00,0.0046
2947.00,0.0048
2946.00,0.0049
2945.00,0.0051
2944.00,0.0054
2943.00,0.0057
2942.00,0.0061
2941.00,0.0065
2940.00,0.0070
2939.00,0.0076
2938.00,0.0082
2937.00,0.0088
2936.00,0.0094
2935.00,0.0100
2934.00,0.0107
2933.00,0.0114
2932.00,0.0122
2931.00,0.0130
2930.00,0.0138
2929.00,0.0147
2928.00,0.0156
2927.00,0.0165
2926.00,0.0174
2925.00,0.0184
2924.00,0.0194
2923.00,0.0204
2922.00,0.0215
2921.00,0.0228
2920.00,0.0240
2919.00,0.0251
2918.00,0.0258
2917.00,0.0260
2916.00,0.0254
2915.00,0.0242
2914.00,0.0225
2913.00,0.0207
2912.00,0.0189
2911.00,0.0172
2910.00,0.0158
2909.00,0.0146
2908.00,0.0136
2907.00,0.0128
2906.00,0.0121
2905.00,0.0115
2904.00,0.0110
2903.00,0.0105
2902.00,0.0100
2901.00,0.0095
2900.00,0.0091
2899.00,0.0087
2898.00,0.0083
2897.00,0.0080
2896.00,0.0076
2895.00,0.0073
2894.00,0.0070
2893.00,0.0068
2892.00,0.0065
2891.00,0.0063
2890.00,0.0061
2889.00,0.0059
2888.00,0.0057
2887.00,0.0055
2886.00,0.0053
2885.00,0.0052
2884.00,0.0050
2883.00,0.0048
2882.00,0.0047
2881.00,0.0046
2880.00,0.0045
2879.00,0.0044
2878.00,0.0044
2877.00,0.0044
2876.00,0.0044
2875.00,0.0044
2874.00,0.0044
2873.00,0.0044
2872.00,0.0044
2871.00,0.0043
2870.00,0.0043
2869.00,0.0042
2868.00,0.0042
2867.00,0.0043
2866.00,0.0044
2865.00,0.0045
2864.00,0.0047
2863.00,0.0049
2862.00,0.0052
2861.00,0.0055
2860.00,0.0059
2859.00,0.0064
2858.00,0.0070
2857.00,0.0077
2856.00,0.0085
2855.00,0.0095
2854.00,0.0106
2853.00,0.0119
2852.00,0.0131
2851.00,0.0141
2850.00,0.0148
2849.00,0.0148
2848.00,0.0142
2847.00,0.0131
2846.00,0.0116
2845.00,0.0101
2844.00,0.0087
2843.00,0.0074
2842.00,0.0064
2841.00,0.0055
2840.00,0.0048
2839.00,0.0042
2838.00,0.0036
2837.00,0.0032
2836.00,0.0028
2835.00,0.0025
2834.00,0.0022
2833.00,0.0020
2832.00,0.0018
2831.00,0.0016
2830.00,0.0014
2829.00,0.0013
2828.00,0.0012
2827.00,0.0012
2826.00,0.0011
2825.00,0.0010
2824.00,0.0010
2823.00,0.0009
2822.00,0.0008
2821.00,0.0008
2820.00,0.0007
2819.00,0.0007
2818.00,0.0006
2817.00,0.0006
2816.00,0.0006
2815.00,0.0006
2814.00,0.0005
2813.00,0.0005
2812.00,0.0004
2811.00,0.0004
2810.00,0.0004
2809.00,0.0004
2808.00,0.0004
2807.00,0.0004
2806.00,0.0004
2805.00,0.0004
2804.00,0.0004
2803.00,0.0004
2802.00,0.0003
2801.00,0.0002
2800.00,0.0002
2799.00,0.0002
2798.00,0.0002
2797.00,0.0002
2796.00,0.0002
2795.00,0.0002
2794.00,0.0002
2793.00,0.0001
2792.00,0.0001
2791.00,0.0001
2790.00,0.0001
2789.00,0.0001
2788.00,0.0000
2787.00,0.0000
2786.00,0.0000
2785.00,0.0000
2784.00,0.0000
2783.00,-0.0000
2782.00,-0.0000
2781.00,-0.0000
2780.00,-0.0001
2779.00,-0.0001
2778.00,-0.0001
2777.00,-0.0001
2776.00,-0.0000
2775.00,0.0000
2774.00,0.0000
2773.00,-0.0000
2772.00,-0.0000
2771.00,-0.0001
2770.00,-0.0001
2769.00,-0.0001
2768.00,-0.0001
2767.00,-0.0001
2766.00,-0.0001
2765.00,-0.0001
2764.00,-0.0001
2763.00,-0.0002
2762.00,-0.0002
2761.00,-0.0002
2760.00,-0.0002
2759.00,-0.0002
2758.00,-0.0002
2757.00,-0.0002
2756.00,-0.0002
2755.00,-0.0002
2754.00,-0.0002
2753.00,-0.0002
2752.00,-0.0002
2751.00,-0.0002
2750.00,-0.0002
2749.00,-0.0002
2748.00,-0.0002
2747.00,-0.0002
2746.00,-0.0002
2745.00,-0.0002
2744.00,-0.0002
2743.00,-0.0002
2742.00,-0.0002
2741.00,-0.0002
2740.00,-0.0002
2739.00,-0.0002
2738.00,-0.0002
2737.00,-0.0002
2736.00,-0.0002
2735.00,-0.0002
2734.00,-0.0002
2733.00,-0.0002
2732.00,-0.0002
2731.00,-0.0002
2730.00,-0.0002
2729.00,-0.0002
2728.00,-0.0002
2727.00,-0.0003
2726.00,-0.0003
2725.00,-0.0003
2724.00,-0.0003
2723.00,-0.0003
2722.00,-0.0003
2721.00,-0.0003
2720.00,-0.0003
2719.00,-0.0002
2718.00,-0.0002
2717.00,-0.0002
2716.00,-0.0003
2715.00,-0.0003
2714.00,-0.0003
2713.00,-0.0003
2712.00,-0.0003
2711.00,-0.0003
2710.00,-0.0003
2709.00,-0.0003
2708.00,-0.0003
2707.00,-0.0003
2706.00,-0.0003
2705.00,-0.0003
2704.00,-0.0003
2703.00,-0.0003
2702.00,-0.0003
2701.00,-0.0003
2700.00,-0.0003
2699.00,-0.0003
2698.00,-0.0003
2697.00,-0.0003
2696.00,-0.0003
2695.00,-0.0003
2694.00,-0.0003
2693.00,-0.0003
2692.00,-0.0003
2691.00,-0.0003
2690.00,-0.0003
2689.00,-0.0003
2688.00,-0.0003
2687.00,-0.0003
2686.00,-0.0003
2685.00,-0.0003
2684.00,-0.0002
2683.00,-0.0002
2682.00,-0.0002
2681.00,-0.0003
2680.00,-0.0003
2679.00,-0.0003
2678.00,-0.0003
2677.00,-0.0002
2676.00,-0.0002
2675.00,-0.0002
2674.00,-0.0003
2673.00,-0.0003
2672.00,-0.0003
2671.00,-0.0003
2670.00,-0.0003
2669.00,-0.0003
2668.00,-0.0003
2667.00,-0.0003
2666.00,-0.0003
2665.00,-0.0003
2664.00,-0.0003
2663.00,-0.0003
2662.00,-0.0003
2661.00,-0.0003
2660.00,-0.0003
2659.00,-0.0003
2658.00,-0.0003
2657.00,-0.0002
2656.00,-0.0002
2655.00,-0.0001
2654.00,-0.0001
2653.00,-0.0001
2652.00,-0.0001
2651.00,-0.0001
2650.00,-0.0001
2649.00,-0.0001
2648.00,-0.0001
2647.00,-0.0001
2646.00,-0.0001
2645.00,-0.0001
2644.00,-0.0001
2643.00,-0.0001
2642.00,-0.0001
2641.00,-0.0001
2640.00,-0.0001
2639.00,-0.0001
2638.00,-0.0001
2637.00,-0.0001
2636.00,-0.0001
2635.00,-0.0001
2634.00,-0.0001
2633.00,-0.0002
2632.00,-0.0002
2631.00,-0.0002
2630.00,-0.0002
2629.00,-0.0001
2628.00,-0.0001
2627.00,-0.0001
2626.00,-0.0001
2625.00,-0.0002
2624.00,-0.0001
2623.00,-0.0001
2622.00,-0.0001
2621.00,-0.0001
2620.00,-0.0001
2619.00,-0.0001
2618.00,-0.0002
2617.00,-0.0002
2616.00,-0.0002
2615.00,-0.0002
2614.00,-0.0002
2613.00,-0.0003
2612.00,-0.0003
2611.00,-0.0003
2610.00,-0.0003
2609.00,-0.0003
2608.00,-0.0002
2607.00,-0.0002
2606.00,-0.0002
2605.00,-0.0002
2604.00,-0.0002
2603.00,-0.0002
2602.00,-0.0002
2601.00,-0.0002
2600.00,-0.0002
2599.00,-0.0002
2598.00,-0.0003
2597.00,-0.0003
2596.00,-0.0003
2595.00,-0.0002
2594.00,-0.0002
2593.00,-0.0002
2592.00,-0.0002
2591.00,-0.0002
2590.00,-0.0002
2589.00,-0.0002
2588.00,-0.0003
2587.00,-0.0003
2586.00,-0.0003
2585.00,-0.0003
2584.00,-0.0002
2583.00,-0.0002
2582.00,-0.0002
2581.00,-0.0002
2580.00,-0.0002
2579.00,-0.0002
2578.00,-0.0002
2577.00,-0.0002
2576.00,-0.0002
2575.00,-0.0002
2574.00,-0.0003
2573.00,-0.0003
2572.00,-0.0003
2571.00,-0.0003
2570.00,-0.0003
2569.00,-0.0003
2568.00,-0.0004
2567.00,-0.0004
2566.00,-0.0004
2565.00,-0.0004
2564.00,-0.0003
2563.00,-0.0003
2562.00,-0.0003
2561.00,-0.0003
2560.00,-0.0003
2559.00,-0.0003
2558.00,-0.0003
2557.00,-0.0004
2556.00,-0.0004
2555.00,-0.0004
2554.00,-0.0004
2553.00,-0.0003
2552.00,-0.0003
2551.00,-0.0002
2550.00,-0.0002
2549.00,-0.0002
2548.00,-0.0003
2547.00,-0.0003
2546.00,-0.0003
2545.00,-0.0003
2544.00,-0.0003
2543.00,-0.0003
2542.00,-0.0003
2541.00,-0.0003
2540.00,-0.0003
2539.00,-0.0003
2538.00,-0.0002
2537.00,-0.0002
2536.00,-0.0002
2535.00,-0.0002
2534.00,-0.0002
2533.00,-0.0003
2532.00,-0.0003
2531.00,-0.0004
2530.00,-0.0004
2529.00,-0.0004
2528.00,-0.0003
2527.00,-0.0003
2526.00,-0.0003
2525.00,-0.0004
2524.00,-0.0004
2523.00,-0.0003
2522.00,-0.0003
2521.00,-0.0003
2520.00,-0.0003
2519.00,-0.0003
2518.00,-0.0003
2517.00,-0.0003
2516.00,-0.0003
2515.00,-0.0003
2514.00,-0.0003
2513.00,-0.0003
2512.00,-0.0003
2511.00,-0.0003
2510.00,-0.0003
2509.00,-0.0003
2508.00,-0.0003
2507.00,-0.0003
2506.00,-0.0003
2505.00,-0.0003
2504.00,-0.0003
2503.00,-0.0003
2502.00,-0.0004
2501.00,-0.0004
2500.00,-0.0004
2499.00,-0.0004
2498.00,-0.0003
2497.00,-0.0003
2496.00,-0.0002
2495.00,-0.0002
2494.00,-0.0003
2493.00,-0.0003
2492.00,-0.0003
2491.00,-0.0003
2490.00,-0.0003
2489.00,-0.0003
2488.00,-0.0003
2487.00,-0.0003
2486.00,-0.0003
2485.00,-0.0004
2484.00,-0.0004
2483.00,-0.0004
2482.00,-0.0004
2481.00,-0.0003
2480.00,-0.0003
2479.00,-0.0003
2478.00,-0.0003
2477.00,-0.0003
2476.00,-0.0004
2475.00,-0.0004
2474.00,-0.0004
2473.00,-0.0005
2472.00,-0.0005
2471.00,-0.0005
2470.00,-0.0004
2469.00,-0.0004
2468.00,-0.0004
2467.00,-0.0004
2466.00,-0.0004
2465.00,-0.0004
2464.00,-0.0004
2463.00,-0.0005
2462.00,-0.0005
2461.00,-0.0005
2460.00,-0.0005
2459.00,-0.0005
2458.00,-0.0004
2457.00,-0.0004
2456.00,-0.0004
2455.00,-0.0004
2454.00,-0.0004
2453.00,-0.0004
2452.00,-0.0004
2451.00,-0.0004
2450.00,-0.0004
2449.00,-0.0004
2448.00,-0.0005
2447.00,-0.0005
2446.00,-0.0004
2445.00,-0.0004
2444.00,-0.0004
2443.00,-0.0004
2442.00,-0.0004
2441.00,-0.0004
2440.00,-0.0004
2439.00,-0.0004
2438.00,-0.0004
2437.00,-0.0004
2436.00,-0.0004
2435.00,-0.0004
2434.00,-0.0004
2433.00,-0.0004
2432.00,-0.0004
2431.00,-0.0004
2430.00,-0.0004
2429.00,-0.0004
2428.00,-0.0003
2427.00,-0.0003
2426.00,-0.0004
2425.00,-0.0004
2424.00,-0.0004
2423.00,-0.0005
2422.00,-0.0005
2421.00,-0.0005
2420.00,-0.0004
2419.00,-0.0004
2418.00,-0.0004
2417.00,-0.0004
2416.00,-0.0004
2415.00,-0.0004
2414.00,-0.0005
2413.00,-0.0005
2412.00,-0.0004
2411.00,-0.0004
2410.00,-0.0005
2409.00,-0.0005
2408.00,-0.0005
2407.00,-0.0005
2406.00,-0.0005
2405.00,-0.0004
2404.00,-0.0004
2403.00,-0.0004
2402.00,-0.0004
2401.00,-0.0004
2400.00,-0.0004
2399.00,-0.0005
2398.00,-0.0005
2397.00,-0.0005
2396.00,-0.0005
2395.00,-0.0005
2394.00,-0.0004
2393.00,-0.0004
2392.00,-0.0004
2391.00,-0.0005
2390.00,-0.0005
2389.00,-0.0005
2388.00,-0.0005
2387.00,-0.0005
2386.00,-0.0005
2385.00,-0.0005
2384.00,-0.0005
2383.00,-0.0005
2382.00,-0.0005
2381.00,-0.0006
2380.00,-0.0006
2379.00,-0.0006
2378.00,-0.0006
2377.00,-0.0006
2376.00,-0.0005
2375.00,-0.0005
2374.00,-0.0005
2373.00,-0.0005
2372.00,-0.0005
2371.00,-0.0004
2370.00,-0.0004
2369.00,-0.0005
2368.00,-0.0005
2367.00,-0.0005
2366.00,-0.0005
2365.00,-0.0005
2364.00,-0.0005
2363.00,-0.0004
2362.00,-0.0003
2361.00,-0.0003
2360.00,-0.0002
2359.00,-0.0003
2358.00,-0.0003
2357.00,-0.0003
2356.00,-0.0003
2355.00,-0.0003
2354.00,-0.0003
2353.00,-0.0003
2352.00,-0.0003
2351.00,-0.0003
2350.00,-0.0003
2349.00,-0.0004
2348.00,-0.0004
2347.00,-0.0004
2346.00,-0.0004
2345.00,-0.0003
2344.00,-0.0003
2343.00,-0.0003
2342.00,-0.0002
2341.00,-0.0002
2340.00,-0.0002
2339.00,-0.0001
2338.00,-0.0001
2337.00,-0.0002
2336.00,-0.0002
2335.00,-0.0002
2334.00,-0.0002
2333.00,-0.0002
2332.00,-0.0002
2331.00,-0.0002
2330.00,-0.0002
2329.00,-0.0002
2328.00,-0.0002
2327.00,-0.0001
2326.00,-0.0000
2325.00,0.0000
2324.00,0.0001
2323.00,0.0001
2322.00,0.0001
2321.00,0.0000
2320.00,0.0000
2319.00,0.0000
2318.00,0.0000
2317.00,0.0000
2316.00,0.0000
2315.00,-0.0000
2314.00,-0.0001
2313.00,-0.0001
2312.00,-0.0001
2311.00,-0.0001
2310.00,-0.0001
2309.00,-0.0001
2308.00,-0.0002
2307.00,-0.0002
2306.00,-0.0003
2305.00,-0.0003
2304.00,-0.0002
2303.00,-0.0002
2302.00,-0.0002
2301.00,-0.0002
2300.00,-0.0002
2299.00,-0.0002
2298.00,-0.0002
2297.00,-0.0002
2296.00,-0.0002
2295.00,-0.0002
2294.00,-0.0002
2293.00,-0.0001
2292.00,-0.0001
2291.00,0.0000
2290.00,0.0001
2289.00,0.0001
2288.00,0.0001
2287.00,0.0001
2286.00,0.0001
2285.00,0.0000
2284.00,-0.0000
2283.00,-0.0001
2282.00,-0.0001
2281.00,-0.0001
2280.00,-0.0001
2279.00,-0.0001
2278.00,-0.0001
2277.00,-0.0001
2276.00,-0.0000
2275.00,0.0000
2274.00,0.0001
2273.00,0.0001
2272.00,0.0002
2271.00,0.0001
2270.00,0.0000
2269.00,-0.0000
2268.00,-0.0001
2267.00,-0.0001
2266.00,-0.0000
2265.00,-0.0000
2264.00,-0.0001
2263.00,-0.0001
2262.00,-0.0001
2261.00,-0.0001
2260.00,-0.0001
2259.00,-0.0001
2258.00,-0.0000
2257.00,0.0001
2256.00,0.0001
2255.00,0.0001
2254.00,0.0001
2253.00,0.0000
2252.00,-0.0000
2251.00,-0.0001
2250.00,-0.0000
2249.00,0.0000
2248.00,0.0000
2247.00,0.0000
2246.00,-0.0000
2245.00,-0.0001
2244.00,-0.0001
2243.00,-0.0002
2242.00,-0.0002
2241.00,-0.0002
2240.00,-0.0001
2239.00,-0.0001
2238.00,-0.0001
2237.00,-0.0001
2236.00,-0.0001
2235.00,-0.0001
2234.00,-0.0000
2233.00,0.0000
2232.00,0.0001
2231.00,0.0001
2230.00,0.0001
2229.00,0.0000
2228.00,-0.0000
2227.00,-0.0001
2226.00,-0.0002
2225.00,-0.0001
2224.00,-0.0001
2223.00,-0.0001
2222.00,-0.0001
2221.00,-0.0001
2220.00,-0.0001
2219.00,-0.0001
2218.00,-0.0001
2217.00,-0.0000
2216.00,0.0000
2215.00,0.0001
2214.00,0.0002
2213.00,0.0002
2212.00,0.0002
2211.00,0.0002
2210.00,0.0002
2209.00,0.0001
2208.00,0.0000
2207.00,0.0001
2206.00,0.0001
2205.00,0.0002
2204.00,0.0002
2203.00,0.0002
2202.00,0.0002
2201.00,0.0002
2200.00,0.0001
2199.00,0.0001
2198.00,0.0001
2197.00,0.0001
2196.00,-0.0000
2195.00,-0.0001
2194.00,-0.0001
2193.00,-0.0002
2192.00,-0.0003
2191.00,-0.0002
2190.00,-0.0001
2189.00,0.0000
2188.00,0.0001
2187.00,0.0001
2186.00,0.0002
2185.00,0.0002
2184.00,0.0003
2183.00,0.0004
2182.00,0.0005
2181.00,0.0006
2180.00,0.0007
2179.00,0.0006
2178.00,0.0004
2177.00,0.0002
2176.00,-0.0000
2175.00,-0.0001
2174.00,-0.0001
2173.00,-0.0000
2172.00,0.0001
2171.00,0.0003
2170.00,0.0003
2169.00,0.0003
2168.00,0.0003
2167.00,0.0003
2166.00,0.0002
2165.00,0.0003
2164.00,0.0004
2163.00,0.0007
2162.00,0.0008
2161.00,0.0009
2160.00,0.0007
2159.00,0.0003
2158.00,-0.0001
2157.00,-0.0005
2156.00,-0.0007
2155.00,-0.0007
2154.00,-0.0006
2153.00,-0.0005
2152.00,-0.0004
2151.00,-0.0004
2150.00,-0.0003
2149.00,-0.0003
2148.00,-0.0003
2147.00,-0.0003
2146.00,-0.0004
2145.00,-0.0004
2144.00,-0.0004
2143.00,-0.0004
2142.00,-0.0004
2141.00,-0.0004
2140.00,-0.0003
2139.00,-0.0003
2138.00,-0.0003
2137.00,-0.0004
2136.00,-0.0005
2135.00,-0.0006
2134.00,-0.0006
2133.00,-0.0006
2132.00,-0.0005
2131.00,-0.0005
2130.00,-0.0005
2129.00,-0.0005
2128.00,-0.0005
2127.00,-0.0005
2126.00,-0.0005
2125.00,-0.0005
2124.00,-0.0005
2123.00,-0.0004
2122.00,-0.0003
2121.00,-0.0003
2120.00,-0.0002
2119.00,-0.0002
2118.00,-0.0002
2117.00,-0.0002
2116.00,-0.0002
2115.00,-0.0002
2114.00,-0.0001
2113.00,-0.0001
2112.00,-0.0001
2111.00,-0.0001
2110.00,-0.0001
2109.00,-0.0001
2108.00,-0.0000
2107.00,0.0000
2106.00,0.0001
2105.00,0.0001
2104.00,0.0001
2103.00,0.0000
2102.00,-0.0000
2101.00,-0.0001
2100.00,-0.0002
2099.00,-0.0002
2098.00,-0.0002
2097.00,-0.0002
2096.00,-0.0002
2095.00,-0.0002
2094.00,-0.0003
2093.00,-0.0004
2092.00,-0.0004
2091.00,-0.0004
2090.00,-0.0004
2089.00,-0.0004
2088.00,-0.0003
2087.00,-0.0002
2086.00,-0.0002
2085.00,-0.0001
2084.00,-0.0001
2083.00,-0.0001
2082.00,-0.0001
2081.00,-0.0000
2080.00,0.0001
2079.00,0.0002
2078.00,0.0002
2077.00,0.0001
2076.00,-0.0000
2075.00,-0.0002
2074.00,-0.0002
2073.00,-0.0002
2072.00,-0.0001
2071.00,-0.0000
2070.00,0.0000
2069.00,0.0000
2068.00,0.0000
2067.00,0.0000
2066.00,0.0000
2065.00,0.0000
2064.00,0.0000
2063.00,0.0000
2062.00,0.0001
2061.00,0.0000
2060.00,-0.0000
2059.00,-0.0001
2058.00,-0.0001
2057.00,-0.0002
2056.00,-0.0002
2055.00,-0.0002
2054.00,-0.0001
2053.00,-0.0000
2052.00,0.0001
2051.00,0.0002
2050.00,0.0003
2049.00,0.0002
2048.00,0.0002
2047.00,0.0001
2046.00,0.0001
2045.00,0.0002
2044.00,0.0002
2043.00,0.0002
2042.00,0.0003
2041.00,0.0003
2040.00,0.0002
2039.00,0.0003
2038.00,0.0003
2037.00,0.0003
2036.00,0.0003
2035.00,0.0003
2034.00,0.0002
2033.00,0.0001
2032.00,0.0001
2031.00,0.0002
2030.00,0.0003
2029.00,0.0004
2028.00,0.0004
2027.00,0.0003
2026.00,0.0002
2025.00,0.0001
2024.00,0.0001
2023.00,0.0001
2022.00,0.0001
2021.00,0.0000
2020.00,-0.0001
2019.00,-0.0002
2018.00,-0.0002
2017.00,-0.0001
2016.00,-0.0000
2015.00,-0.0000
2014.00,0.0000
2013.00,0.0001
2012.00,0.0002
2011.00,0.0003
2010.00,0.0004
2009.00,0.0004
2008.00,0.0003
2007.00,0.0002
2006.00,0.0001
2005.00,-0.0000
2004.00,-0.0001
2003.00,-0.0002
2002.00,-0.0002
2001.00,-0.0003
2000.00,-0.0002
1999.00,-0.0000
1998.00,0.0001
1997.00,0.0002
1996.00,0.0003
1995.00,0.0004
1994.00,0.0004
1993.00,0.0003
1992.00,0.0002
1991.00,0.0001
1990.00,0.0001
1989.00,0.0001
1988.00,0.0001
1987.00,0.0001
1986.00,0.0001
1985.00,0.0001
1984.00,0.0002
1983.00,0.0003
1982.00,0.0004
1981.00,0.0006
1980.00,0.0007
1979.00,0.0007
1978.00,0.0006
1977.00,0.0004
1976.00,0.0002
1975.00,0.0001
1974.00,0.0001
1973.00,0.0001
1972.00,0.0001
1971.00,0.0002
1970.00,0.0004
1969.00,0.0005
1968.00,0.0006
1967.00,0.0006
1966.00,0.0006
1965.00,0.0006
1964.00,0.0005
1963.00,0.0006
1962.00,0.0006
1961.00,0.0006
1960.00,0.0005
1959.00,0.0005
1958.00,0.0005
1957.00,0.0005
1956.00,0.0005
1955.00,0.0006
1954.00,0.0007
1953.00,0.0008
1952.00,0.0009
1951.00,0.0010
1950.00,0.0011
1949.00,0.0011
1948.00,0.0011
1947.00,0.0011
1946.00,0.0011
1945.00,0.0011
1944.00,0.0010
1943.00,0.0009
1942.00,0.0010
1941.00,0.0011
1940.00,0.0011
1939.00,0.0011
1938.00,0.0011
1937.00,0.0010
1936.00,0.0010
1935.00,0.0010
1934.00,0.0009
1933.00,0.0008
1932.00,0.0007
1931.00,0.0005
1930.00,0.0004
1929.00,0.0004
1928.00,0.0003
1927.00,0.0002
1926.00,0.0002
1925.00,0.0001
1924.00,0.0002
1923.00,0.0002
1922.00,0.0002
1921.00,0.0001
1920.00,0.0001
1919.00,0.0000
1918.00,0.0000
1917.00,-0.0000
1916.00,-0.0001
1915.00,-0.0001
1914.00,-0.0001
1913.00,-0.0001
1912.00,0.0000
1911.00,0.0000
1910.00,0.0000
1909.00,0.0000
1908.00,0.0001
1907.00,0.0001
1906.00,0.0002
1905.00,0.0002
1904.00,0.0002
1903.00,0.0001
1902.00,0.0001
1901.00,0.0000
1900.00,0.0000
1899.00,0.0000
1898.00,0.0001
1897.00,0.0002
1896.00,0.0002
1895.00,0.0003
1894.00,0.0003
1893.00,0.0003
1892.00,0.0003
1891.00,0.0004
1890.00,0.0005
1889.00,0.0005
1888.00,0.0006
1887.00,0.0007
1886.00,0.0007
1885.00,0.0007
1884.00,0.0006
1883.00,0.0006
1882.00,0.0006
1881.00,0.0007
1880.00,0.0007
1879.00,0.0008
1878.00,0.0009
1877.00,0.0009
1876.00,0.0009
1875.00,0.0009
1874.00,0.0009
1873.00,0.0009
1872.00,0.0009
1871.00,0.0010
1870.00,0.0010
1869.00,0.0010
1868.00,0.0010
1867.00,0.0009
1866.00,0.0008
1865.00,0.0008
1864.00,0.0007
1863.00,0.0007
1862.00,0.0007
1861.00,0.0006
1860.00,0.0006
1859.00,0.0005
1858.00,0.0005
1857.00,0.0004
1856.00,0.0003
1855.00,0.0003
1854.00,0.0003
1853.00,0.0002
1852.00,0.0002
1851.00,0.0002
1850.00,0.0001
1849.00,0.0001
1848.00,0.0001
1847.00,0.0000
1846.00,0.0000
1845.00,-0.0000
1844.00,-0.0001
1843.00,-0.0001
1842.00,-0.0001
1841.00,-0.0001
1840.00,-0.0000
1839.00,0.0000
1838.00,0.0001
1837.00,0.0001
1836.00,0.0001
1835.00,0.0000
1834.00,0.0000
1833.00,-0.0000
1832.00,0.0000
1831.00,0.0000
1830.00,0.0000
1829.00,0.0001
1828.00,0.0001
1827.00,0.0001
1826.00,0.0002
1825.00,0.0002
1824.00,0.0002
1823.00,0.0002
1822.00,0.0003
1821.00,0.0003
1820.00,0.0004
1819.00,0.0004
1818.00,0.0004
1817.00,0.0005
1816.00,0.0005
1815.00,0.0005
1814.00,0.0006
1813.00,0.0007
1812.00,0.0007
1811.00,0.0007
1810.00,0.0008
1809.00,0.0008
1808.00,0.0008
1807.00,0.0009
1806.00,0.0009
1805.00,0.0010
1804.00,0.0010
1803.00,0.0010
1802.00,0.0010
1801.00,0.0011
1800.00,0.0011
1799.00,0.0011
1798.00,0.0010
1797.00,0.0009
1796.00,0.0008
1795.00,0.0008
1794.00,0.0007
1793.00,0.0007
1792.00,0.0007
1791.00,0.0006
1790.00,0.0005
1789.00,0.0005
1788.00,0.0005
1787.00,0.0005
1786.00,0.0004
1785.00,0.0004
1784.00,0.0003
1783.00,0.0003
1782.00,0.0002
1781.00,0.0003
1780.00,0.0003
1779.00,0.0003
1778.00,0.0003
1777.00,0.0003
1776.00,0.0004
1775.00,0.0004
1774.00,0.0004
1773.00,0.0004
1772.00,0.0004
1771.00,0.0004
1770.00,0.0004
1769.00,0.0004
1768.00,0.0004
1767.00,0.0004
1766.00,0.0005
1765.00,0.0005
1764.00,0.0006
1763.00,0.0007
1762.00,0.0008
1761.00,0.0008
1760.00,0.0009
1759.00,0.0010
1758.00,0.0011
1757.00,0.0012
1756.00,0.0013
1755.00,0.0015
1754.00,0.0017
1753.00,0.0019
1752.00,0.0021
1751.00,0.0023
1750.00,0.0026
1749.00,0.0028
1748.00,0.0031
1747.00,0.0033
1746.00,0.0036
1745.00,0.0039
1744.00,0.0041
1743.00,0.0044
1742.00,0.0047
1741.00,0.0050
1740.00,0.0051
1739.00,0.0051
1738.00,0.0051
1737.00,0.0051
1736.00,0.0050
1735.00,0.0050
1734.00,0.0049
1733.00,0.0051
1732.00,0.0052
1731.00,0.0054
1730.00,0.0053
1729.00,0.0050
1728.00,0.0045
1727.00,0.0039
1726.00,0.0035
1725.00,0.0031
1724.00,0.0028
1723.00,0.0026
1722.00,0.0024
1721.00,0.0023
1720.00,0.0022
1719.00,0.0021
1718.00,0.0020
1717.00,0.0019
1716.00,0.0018
1715.00,0.0017
1714.00,0.0016
1713.00,0.0015
1712.00,0.0014
1711.00,0.0013
1710.00,0.0013
1709.00,0.0013
1708.00,0.0012
1707.00,0.0012
1706.00,0.0012
1705.00,0.0011
1704.00,0.0011
1703.00,0.0010
1702.00,0.0010
1701.00,0.0010
1700.00,0.0010
1699.00,0.0009
1698.00,0.0009
1697.00,0.0008
1696.00,0.0008
1695.00,0.0008
1694.00,0.0008
1693.00,0.0007
1692.00,0.0007
1691.00,0.0007
1690.00,0.0007
1689.00,0.0007
1688.00,0.0007
1687.00,0.0007
1686.00,0.0007
1685.00,0.0007
1684.00,0.0007
1683.00,0.0007
1682.00,0.0007
1681.00,0.0007
1680.00,0.0007
1679.00,0.0007
1678.00,0.0007
1677.00,0.0007
1676.00,0.0007
1675.00,0.0007
1674.00,0.0007
1673.00,0.0007
1672.00,0.0008
1671.00,0.0008
1670.00,0.0008
1669.00,0.0008
1668.00,0.0007
1667.00,0.0007
1666.00,0.0007
1665.00,0.0007
1664.00,0.0007
1663.00,0.0007
1662.00,0.0006
1661.00,0.0006
1660.00,0.0006
1659.00,0.0006
1658.00,0.0006
1657.00,0.0005
1656.00,0.0005
1655.00,0.0005
1654.00,0.0005
1653.00,0.0004
1652.00,0.0004
1651.00,0.0004
1650.00,0.0003
1649.00,0.0003
1648.00,0.0003
1647.00,0.0003
1646.00,0.0003
1645.00,0.0003
1644.00,0.0003
1643.00,0.0003
1642.00,0.0003
1641.00,0.0003
1640.00,0.0003
1639.00,0.0003
1638.00,0.0003
1637.00,0.0003
1636.00,0.0003
1635.00,0.0003
1634.00,0.0003
1633.00,0.0004
1632.00,0.0004
1631.00,0.0004
1630.00,0.0003
1629.00,0.0004
1628.00,0.0004
1627.00,0.0004
1626.00,0.0004
1625.00,0.0004
1624.00,0.0005
1623.00,0.0005
1622.00,0.0005
1621.00,0.0006
1620.00,0.0006
1619.00,0.0006
1618.00,0.0006
1617.00,0.0007
1616.00,0.0008
1615.00,0.0009
1614.00,0.0010
1613.00,0.0011
1612.00,0.0013
1611.00,0.0015
1610.00,0.0018
1609.00,0.0023
1608.00,0.0028
1607.00,0.0036
1606.00,0.0044
1605.00,0.0054
1604.00,0.0064
1603.00,0.0072
1602.00,0.0078
1601.00,0.0080
1600.00,0.0078
1599.00,0.0073
1598.00,0.0066
1597.00,0.0058
1596.00,0.0050
1595.00,0.0044
1594.00,0.0038
1593.00,0.0034
1592.00,0.0031
1591.00,0.0028
1590.00,0.0027
1589.00,0.0026
1588.00,0.0026
1587.00,0.0028
1586.00,0.0030
1585.00,0.0033
1584.00,0.0036
1583.00,0.0037
1582.00,0.0036
1581.00,0.0033
1580.00,0.0029
1579.00,0.0026
1578.00,0.0024
1577.00,0.0021
1576.00,0.0019
1575.00,0.0018
1574.00,0.0016
1573.00,0.0016
1572.00,0.0015
1571.00,0.0015
1570.00,0.0014
1569.00,0.0014
1568.00,0.0014
1567.00,0.0015
1566.00,0.0015
1565.00,0.0015
1564.00,0.0015
1563.00,0.0016
1562.00,0.0016
1561.00,0.0017
1560.00,0.0018
1559.00,0.0019
1558.00,0.0020
1557.00,0.0021
1556.00,0.0023
1555.00,0.0025
1554.00,0.0028
1553.00,0.0031
1552.00,0.0034
1551.00,0.0038
1550.00,0.0042
1549.00,0.0048
1548.00,0.0054
1547.00,0.0061
1546.00,0.0070
1545.00,0.0081
1544.00,0.0092
1543.00,0.0104
1542.00,0.0116
1541.00,0.0125
1540.00,0.0130
1539.00,0.0129
1538.00,0.0124
1537.00,0.0118
1536.00,0.0110
1535.00,0.0098
1534.00,0.0084
1533.00,0.0071
1532.00,0.0060
1531.00,0.0053
1530.00,0.0047
1529.00,0.0042
1528.00,0.0037
1527.00,0.0033
1526.00,0.0029
1525.00,0.0026
1524.00,0.0024
1523.00,0.0023
1522.00,0.0021
1521.00,0.0019
1520.00,0.0018
1519.00,0.0017
1518.00,0.0016
1517.00,0.0016
1516.00,0.0016
1515.00,0.0015
1514.00,0.0015
1513.00,0.0014
1512.00,0.0014
1511.00,0.0014
1510.00,0.0014
1509.00,0.0014
1508.00,0.0014
1507.00,0.0014
1506.00,0.0014
1505.00,0.0015
1504.00,0.0017
1503.00,0.0019
1502.00,0.0022
1501.00,0.0026
1500.00,0.0033
1499.00,0.0043
1498.00,0.0059
1497.00,0.0084
1496.00,0.0115
1495.00,0.0147
1494.00,0.0173
1493.00,0.0188
1492.00,0.0188
1491.00,0.0172
1490.00,0.0147
1489.00,0.0120
1488.00,0.0098
1487.00,0.0082
1486.00,0.0070
1485.00,0.0061
1484.00,0.0053
1483.00,0.0047
1482.00,0.0043
1481.00,0.0039
1480.00,0.0037
1479.00,0.0036
1478.00,0.0035
1477.00,0.0036
1476.00,0.0038
1475.00,0.0041
1474.00,0.0045
1473.00,0.0050
1472.00,0.0055
1471.00,0.0060
1470.00,0.0063
1469.00,0.0066
1468.00,0.0069
1467.00,0.0071
1466.00,0.0073
1465.00,0.0073
1464.00,0.0073
1463.00,0.0073
1462.00,0.0073
1461.00,0.0075
1460.00,0.0078
1459.00,0.0084
1458.00,0.0096
1457.00,0.0116
1456.00,0.0141
1455.00,0.0166
1454.00,0.0189
1453.00,0.0206
1452.00,0.0214
1451.00,0.0212
1450.00,0.0201
1449.00,0.0186
1448.00,0.0171
1447.00,0.0157
1446.00,0.0146
1445.00,0.0136
1444.00,0.0127
1443.00,0.0118
1442.00,0.0110
1441.00,0.0103
1440.00,0.0096
1439.00,0.0090
1438.00,0.0083
1437.00,0.0075
1436.00,0.0067
1435.00,0.0061
1434.00,0.0057
1433.00,0.0053
1432.00,0.0049
1431.00,0.0046
1430.00,0.0043
1429.00,0.0040
1428.00,0.0038
1427.00,0.0036
1426.00,0.0034
1425.00,0.0033
1424.00,0.0033
1423.00,0.0032
1422.00,0.0032
1421.00,0.0033
1420.00,0.0033
1419.00,0.0033
1418.00,0.0033
1417.00,0.0032
1416.00,0.0031
1415.00,0.0031
1414.00,0.0031
1413.00,0.0030
1412.00,0.0029
1411.00,0.0029
1410.00,0.0028
1409.00,0.0028
1408.00,0.0028
1407.00,0.0029
1406.00,0.0029
1405.00,0.0030
1404.00,0.0032
1403.00,0.0035
1402.00,0.0039
1401.00,0.0043
1400.00,0.0047
1399.00,0.0051
1398.00,0.0053
1397.00,0.0053
1396.00,0.0051
1395.00,0.0049
1394.00,0.0047
1393.00,0.0045
1392.00,0.0044
1391.00,0.0044
1390.00,0.0043
1389.00,0.0043
1388.00,0.0044
1387.00,0.0044
1386.00,0.0045
1385.00,0.0045
1384.00,0.0046
1383.00,0.0047
1382.00,0.0048
1381.00,0.0049
1380.00,0.0050
1379.00,0.0051
1378.00,0.0052
1377.00,0.0053
1376.00,0.0054
1375.00,0.0054
1374.00,0.0054
1373.00,0.0054
1372.00,0.0054
1371.00,0.0054
1370.00,0.0054
1369.00,0.0054
1368.00,0.0054
1367.00,0.0053
1366.00,0.0053
1365.00,0.0052
1364.00,0.0052
1363.00,0.0051
1362.00,0.0051
1361.00,0.0050
1360.00,0.0049
1359.00,0.0049
1358.00,0.0048
1357.00,0.0047
1356.00,0.0047
1355.00,0.0046
1354.00,0.0046
1353.00,0.0046
1352.00,0.0046
1351.00,0.0046
1350.00,0.0046
1349.00,0.0046
1348.00,0.0046
1347.00,0.0045
1346.00,0.0045
1345.00,0.0044
1344.00,0.0043
1343.00,0.0042
1342.00,0.0041
1341.00,0.0041
1340.00,0.0040
1339.00,0.0040
1338.00,0.0040
1337.00,0.0040
1336.00,0.0041
1335.00,0.0041
1334.00,0.0042
1333.00,0.0043
1332.00,0.0044
1331.00,0.0045
1330.00,0.0046
1329.00,0.0046
1328.00,0.0046
1327.00,0.0046
1326.00,0.0045
1325.00,0.0044
1324.00,0.0044
1323.00,0.0043
1322.00,0.0043
1321.00,0.0042
1320.00,0.0042
1319.00,0.0042
1318.00,0.0042
1317.00,0.0043
1316.00,0.0044
1315.00,0.0044
1314.00,0.0045
1313.00,0.0046
1312.00,0.0046
1311.00,0.0046
1310.00,0.0046
1309.00,0.0045
1308.00,0.0045
1307.00,0.0044
1306.00,0.0043
1305.00,0.0042
1304.00,0.0042
1303.00,0.0041
1302.00,0.0041
1301.00,0.0040
1300.00,0.0039
1299.00,0.0039
1298.00,0.0039
1297.00,0.0038
1296.00,0.0038
1295.00,0.0038
1294.00,0.0038
1293.00,0.0038
1292.00,0.0038
1291.00,0.0038
1290.00,0.0038
1289.00,0.0038
1288.00,0.0038
1287.00,0.0038
1286.00,0.0037
1285.00,0.0037
1284.00,0.0037
1283.00,0.0037
1282.00,0.0036
1281.00,0.0036
1280.00,0.0036
1279.00,0.0036
1278.00,0.0037
1277.00,0.0038
1276.00,0.0038
1275.00,0.0039
1274.00,0.0039
1273.00,0.0039
1272.00,0.0039
1271.00,0.0038
1270.00,0.0038
1269.00,0.0037
1268.00,0.0037
1267.00,0.0035
1266.00,0.0034
1265.00,0.0033
1264.00,0.0032
1263.00,0.0030
1262.00,0.0029
1261.00,0.0028
1260.00,0.0028
1259.00,0.0028
1258.00,0.0028
1257.00,0.0028
1256.00,0.0028
1255.00,0.0028
1254.00,0.0027
1253.00,0.0026
1252.00,0.0025
1251.00,0.0024
1250.00,0.0023
1249.00,0.0023
1248.00,0.0023
1247.00,0.0022
1246.00,0.0022
1245.00,0.0021
1244.00,0.0021
1243.00,0.0020
1242.00,0.0020
1241.00,0.0020
1240.00,0.0020
1239.00,0.0020
1238.00,0.0020
1237.00,0.0021
1236.00,0.0021
1235.00,0.0021
1234.00,0.0020
1233.00,0.0019
1232.00,0.0019
1231.00,0.0018
1230.00,0.0019
1229.00,0.0019
1228.00,0.0019
1227.00,0.0019
1226.00,0.0019
1225.00,0.0019
1224.00,0.0020
1223.00,0.0021
1222.00,0.0022
1221.00,0.0023
1220.00,0.0023
1219.00,0.0024
1218.00,0.0025
1217.00,0.0025
1216.00,0.0026
1215.00,0.0026
1214.00,0.0025
1213.00,0.0025
1212.00,0.0024
1211.00,0.0024
1210.00,0.0024
1209.00,0.0025
1208.00,0.0025
1207.00,0.0025
1206.00,0.0026
1205.00,0.0026
1204.00,0.0028
1203.00,0.0030
1202.00,0.0032
1201.00,0.0034
1200.00,0.0037
1199.00,0.0040
1198.00,0.0042
1197.00,0.0044
1196.00,0.0046
1195.00,0.0046
1194.00,0.0046
1193.00,0.0044
1192.00,0.0043
1191.00,0.0041
1190.00,0.0041
1189.00,0.0041
1188.00,0.0042
1187.00,0.0045
1186.00,0.0049
1185.00,0.0054
1184.00,0.0060
1183.00,0.0066
1182.00,0.0071
1181.00,0.0073
1180.00,0.0073
1179.00,0.0071
1178.00,0.0068
1177.00,0.0064
1176.00,0.0060
1175.00,0.0057
1174.00,0.0054
1173.00,0.0051
1172.00,0.0049
1171.00,0.0047
1170.00,0.0046
1169.00,0.0044
1168.00,0.0043
1167.00,0.0041
1166.00,0.0040
1165.00,0.0038
1164.00,0.0038
1163.00,0.0038
1162.00,0.0038
1161.00,0.0039
1160.00,0.0041
1159.00,0.0044
1158.00,0.0046
1157.00,0.0048
1156.00,0.0050
1155.00,0.0051
1154.00,0.0050
1153.00,0.0049
1152.00,0.0047
1151.00,0.0044
1150.00,0.0040
1149.00,0.0037
1148.00,0.0034
1147.00,0.0032
1146.00,0.0030
1145.00,0.0028
1144.00,0.0027
1143.00,0.0026
1142.00,0.0026
1141.00,0.0025
1140.00,0.0025
1139.00,0.0024
1138.00,0.0024
1137.00,0.0023
1136.00,0.0023
1135.00,0.0022
1134.00,0.0023
1133.00,0.0023
1132.00,0.0024
1131.00,0.0025
1130.00,0.0026
1129.00,0.0026
1128.00,0.0027
1127.00,0.0028
1126.00,0.0028
1125.00,0.0029
1124.00,0.0030
1123.00,0.0032
1122.00,0.0033
1121.00,0.0035
1120.00,0.0036
1119.00,0.0039
1118.00,0.0041
1117.00,0.0043
1116.00,0.0046
1115.00,0.0048
1114.00,0.0050
1113.00,0.0051
1112.00,0.0052
1111.00,0.0053
1110.00,0.0054
1109.00,0.0056
1108.00,0.0058
1107.00,0.0059
1106.00,0.0060
1105.00,0.0060
1104.00,0.0059
1103.00,0.0059
1102.00,0.0059
1101.00,0.0060
1100.00,0.0061
1099.00,0.0061
1098.00,0.0062
1097.00,0.0062
1096.00,0.0061
1095.00,0.0060
1094.00,0.0059
1093.00,0.0058
1092.00,0.0057
1091.00,0.0057
1090.00,0.0056
1089.00,0.0055
1088.00,0.0055
1087.00,0.0054
1086.00,0.0054
1085.00,0.0054
1084.00,0.0055
1083.00,0.0056
1082.00,0.0057
1081.00,0.0059
1080.00,0.0062
1079.00,0.0065
1078.00,0.0068
1077.00,0.0071
1076.00,0.0074
1075.00,0.0077
1074.00,0.0080
1073.00,0.0083
1072.00,0.0086
1071.00,0.0089
1070.00,0.0091
1069.00,0.0092
1068.00,0.0092
1067.00,0.0092
1066.00,0.0091
1065.00,0.0090
1064.00,0.0089
1063.00,0.0087
1062.00,0.0084
1061.00,0.0082
1060.00,0.0079
1059.00,0.0078
1058.00,0.0077
1057.00,0.0076
1056.00,0.0075
1055.00,0.0075
1054.00,0.0074
1053.00,0.0074
1052.00,0.0073
1051.00,0.0073
1050.00,0.0073
1049.00,0.0073
1048.00,0.0074
1047.00,0.0074
1046.00,0.0073
1045.00,0.0072
1044.00,0.0071
1043.00,0.0070
1042.00,0.0069
1041.00,0.0069
1040.00,0.0069
1039.00,0.0069
1038.00,0.0071
1037.00,0.0074
1036.00,0.0078
1035.00,0.0084
1034.00,0.0091
1033.00,0.0100
1032.00,0.0108
1031.00,0.0116
1030.00,0.0122
1029.00,0.0126
1028.00,0.0126
1027.00,0.0123
1026.00,0.0117
1025.00,0.0110
1024.00,0.0102
1023.00,0.0094
1022.00,0.0087
1021.00,0.0081
1020.00,0.0076
1019.00,0.0072
1018.00,0.0069
1017.00,0.0066
1016.00,0.0064
1015.00,0.0061
1014.00,0.0058
1013.00,0.0056
1012.00,0.0054
1011.00,0.0053
1010.00,0.0051
1009.00,0.0051
1008.00,0.0050
1007.00,0.0050
1006.00,0.0050
1005.00,0.0051
1004.00,0.0052
1003.00,0.0052
1002.00,0.0051
1001.00,0.0049
1000.00,0.0046
999.00,0.0044
998.00,0.0041
997.00,0.0040
996.00,0.0040
995.00,0.0041
994.00,0.0041
993.00,0.0041
992.00,0.0041
991.00,0.0040
990.00,0.0040
989.00,0.0040
988.00,0.0040
987.00,0.0041
986.00,0.0042
985.00,0.0043
984.00,0.0044
983.00,0.0045
982.00,0.0045
981.00,0.0046
980.00,0.0046
979.00,0.0046
978.00,0.0046
977.00,0.0045
976.00,0.0044
975.00,0.0043
974.00,0.0042
973.00,0.0041
972.00,0.0041
971.00,0.0042
970.00,0.0042
969.00,0.0044
968.00,0.0046
967.00,0.0047
966.00,0.0049
965.00,0.0050
964.00,0.0051
963.00,0.0051
962.00,0.0050
961.00,0.0048
960.00,0.0046
959.00,0.0044
958.00,0.0042
957.00,0.0041
956.00,0.0040
955.00,0.0039
954.00,0.0039
953.00,0.0039
952.00,0.0039
951.00,0.0039
950.00,0.0040
949.00,0.0041
948.00,0.0042
947.00,0.0043
946.00,0.0044
945.00,0.0044
944.00,0.0044
943.00,0.0044
942.00,0.0043
941.00,0.0042
940.00,0.0041
939.00,0.0040
938.00,0.0039
937.00,0.0038
936.00,0.0037
935.00,0.0036
934.00,0.0035
933.00,0.0034
932.00,0.0033
931.00,0.0033
930.00,0.0032
929.00,0.0032
928.00,0.0031
927.00,0.0030
926.00,0.0030
925.00,0.0031
924.00,0.0031
923.00,0.0031
922.00,0.0032
921.00,0.0032
920.00,0.0033
919.00,0.0034
918.00,0.0036
917.00,0.0038
916.00,0.0041
915.00,0.0044
914.00,0.0048
913.00,0.0051
912.00,0.0055
911.00,0.0060
910.00,0.0066
909.00,0.0070
908.00,0.0074
907.00,0.0076
906.00,0.0077
905.00,0.0076
904.00,0.0073
903.00,0.0070
902.00,0.0065
901.00,0.0060
900.00,0.0055
899.00,0.0051
898.00,0.0046
897.00,0.0042
896.00,0.0040
895.00,0.0037
894.00,0.0036
893.00,0.0034
892.00,0.0033
891.00,0.0032
890.00,0.0031
889.00,0.0030
888.00,0.0029
887.00,0.0028
886.00,0.0027
885.00,0.0026
884.00,0.0025
883.00,0.0025
882.00,0.0025
881.00,0.0024
880.00,0.0024
879.00,0.0024
878.00,0.0023
877.00,0.0023
876.00,0.0023
875.00,0.0023
874.00,0.0022
873.00,0.0022
872.00,0.0021
871.00,0.0021
870.00,0.0022
869.00,0.0022
868.00,0.0022
867.00,0.0021
866.00,0.0020
865.00,0.0019
864.00,0.0019
863.00,0.0020
862.00,0.0020
861.00,0.0020
860.00,0.0020
859.00,0.0020
858.00,0.0020
857.00,0.0021
856.00,0.0021
855.00,0.0022
854.00,0.0023
853.00,0.0023
852.00,0.0024
851.00,0.0025
850.00,0.0026
849.00,0.0028
848.00,0.0029
847.00,0.0031
846.00,0.0033
845.00,0.0035
844.00,0.0037
843.00,0.0038
842.00,0.0040
841.00,0.0040
840.00,0.0039
839.00,0.0037
838.00,0.0035
837.00,0.0032
836.00,0.0029
835.00,0.0026
834.00,0.0023
833.00,0.0021
832.00,0.0019
831.00,0.0018
830.00,0.0017
829.00,0.0018
828.00,0.0019
827.00,0.0019
826.00,0.0019
825.00,0.0018
824.00,0.0018
823.00,0.0018
822.00,0.0018
821.00,0.0018
820.00,0.0017
819.00,0.0016
818.00,0.0015
817.00,0.0015
816.00,0.0015
815.00,0.0014
814.00,0.0015
813.00,0.0016
812.00,0.0017
811.00,0.0018
810.00,0.0017
809.00,0.0015
808.00,0.0014
807.00,0.0013
806.00,0.0013
805.00,0.0014
804.00,0.0015
803.00,0.0016
802.00,0.0016
801.00,0.0016
800.00,0.0016
799.00,0.0016
798.00,0.0016
797.00,0.0017
796.00,0.0018
795.00,0.0020
794.00,0.0022
793.00,0.0023
792.00,0.0025
791.00,0.0026
790.00,0.0028
789.00,0.0029
788.00,0.0031
787.00,0.0032
786.00,0.0034
785.00,0.0037
784.00,0.0040
783.00,0.0043
782.00,0.0048
781.00,0.0053
780.00,0.0059
779.00,0.0064
778.00,0.0070
777.00,0.0076
776.00,0.0083
775.00,0.0091
774.00,0.0099
773.00,0.0108
772.00,0.0118
771.00,0.0128
770.00,0.0139
769.00,0.0150
768.00,0.0161
767.00,0.0171
766.00,0.0181
765.00,0.0192
764.00,0.0202
763.00,0.0213
762.00,0.0225
761.00,0.0236
760.00,0.0247
759.00,0.0257
758.00,0.0267
757.00,0.0274
756.00,0.0279
755.00,0.0281
754.00,0.0283
753.00,0.0283
752.00,0.0284
751.00,0.0286
750.00,0.0287
749.00,0.0289
748.00,0.0288
747.00,0.0285
746.00,0.0280
745.00,0.0271
744.00,0.0261
743.00,0.0248
742.00,0.0233
741.00,0.0217
740.00,0.0201
739.00,0.0185
738.00,0.0169
737.00,0.0155
736.00,0.0141
735.00,0.0128
734.00,0.0115
733.00,0.0103
732.00,0.0093
731.00,0.0083
730.00,0.0074
729.00,0.0067
728.00,0.0062
727.00,0.0059
726.00,0.0057
725.00,0.0057
724.00,0.0057
723.00,0.0057
722.00,0.0056
721.00,0.0055
720.00,0.0054
719.00,0.0052
718.00,0.0050
717.00,0.0049
716.00,0.0048
715.00,0.0049
714.00,0.0052
713.00,0.0057
712.00,0.0063
711.00,0.0073
710.00,0.0088
709.00,0.0108
708.00,0.0134
707.00,0.0165
706.00,0.0200
705.00,0.0240
704.00,0.0284
703.00,0.0330
702.00,0.0378
701.00,0.0426
700.00,0.0475
699.00,0.0521
698.00,0.0566
697.00,0.0605
696.00,0.0635
695.00,0.0650
694.00,0.0646
693.00,0.0625
692.00,0.0589
691.00,0.0543
690.00,0.0494
689.00,0.0446
688.00,0.0402
687.00,0.0366
686.00,0.0336
685.00,0.0313
684.00,0.0293
683.00,0.0275
682.00,0.0260
681.00,0.0247
680.00,0.0236
679.00,0.0227
678.00,0.0218
677.00,0.0210
676.00,0.0202
675.00,0.0195
674.00,0.0187
673.00,0.0182
672.00,0.0178
671.00,0.0177
670.00,0.0178
669.00,0.0176
668.00,0.0171
667.00,0.0165
666.00,0.0161
665.00,0.0158
664.00,0.0155
663.00,0.0151
662.00,0.0146
661.00,0.0143
660.00,0.0140
659.00,0.0139
658.00,0.0137
657.00,0.0134
656.00,0.0131
655.00,0.0127
654.00,0.0123
653.00,0.0119
652.00,0.0115
651.00,0.0113
650.00,0.0113
