Created as New Dataset,PS Biaxial Film GF
cm-1,%T
4000.00,99.53
3999.00,99.53
3998.00,99.54
3997.00,99.54
3996.00,99.55
3995.00,99.55
3994.00,99.55
3993.00,99.55
3992.00,99.56
3991.00,99.56
3990.00,99.56
3989.00,99.56
3988.00,99.56
3987.00,99.56
3986.00,99.57
3985.00,99.57
3984.00,99.57
3983.00,99.57
3982.00,99.56
3981.00,99.56
3980.00,99.56
3979.00,99.56
3978.00,99.57
3977.00,99.57
3976.00,99.57
3975.00,99.57
3974.00,99.56
3973.00,99.56
3972.00,99.57
3971.00,99.57
3970.00,99.57
3969.00,99.57
3968.00,99.57
3967.00,99.57
3966.00,99.57
3965.00,99.57
3964.00,99.57
3963.00,99.57
3962.00,99.57
3961.00,99.57
3960.00,99.57
3959.00,99.57
3958.00,99.57
3957.00,99.57
3956.00,99.58
3955.00,99.58
3954.00,99.58
3953.00,99.58
3952.00,99.58
3951.00,99.57
3950.00,99.57
3949.00,99.57
3948.00,99.57
3947.00,99.57
3946.00,99.57
3945.00,99.57
3944.00,99.56
3943.00,99.56
3942.00,99.56
3941.00,99.56
3940.00,99.56
3939.00,99.56
3938.00,99.55
3937.00,99.55
3936.00,99.55
3935.00,99.56
3934.00,99.56
3933.00,99.56
3932.00,99.56
3931.00,99.56
3930.00,99.56
3929.00,99.56
3928.00,99.56
3927.00,99.57
3926.00,99.57
3925.00,99.57
3924.00,99.57
3923.00,99.56
3922.00,99.56
3921.00,99.56
3920.00,99.56
3919.00,99.56
3918.00,99.57
3917.00,99.57
3916.00,99.57
3915.00,99.57
3914.00,99.57
3913.00,99.57
3912.00,99.57
3911.00,99.57
3910.00,99.56
3909.00,99.56
3908.00,99.56
3907.00,99.56
3906.00,99.56
3905.00,99.56
3904.00,99.55
3903.00,99.55
3902.00,99.55
3901.00,99.55
3900.00,99.55
3899.00,99.55
3898.00,99.55
3897.00,99.55
3896.00,99.56
3895.00,99.56
3894.00,99.56
3893.00,99.56
3892.00,99.56
3891.00,99.56
3890.00,99.55
3889.00,99.56
3888.00,99.56
3887.00,99.56
3886.00,99.55
3885.00,99.55
3884.00,99.56
3883.00,99.56
3882.00,99.56
3881.00,99.56
3880.00,99.56
3879.00,99.55
3878.00,99.55
3877.00,99.56
3876.00,99.56
3875.00,99.55
3874.00,99.55
3873.00,99.55
3872.00,99.56
3871.00,99.55
3870.00,99.55
3869.00,99.54
3868.00,99.54
3867.00,99.54
3866.00,99.54
3865.00,99.54
3864.00,99.54
3863.00,99.54
3862.00,99.54
3861.00,99.54
3860.00,99.54
3859.00,99.54
3858.00,99.54
3857.00,99.54
3856.00,99.54
3855.00,99.54
3854.00,99.54
3853.00,99.53
3852.00,99.54
3851.00,99.54
3850.00,99.54
3849.00,99.54
3848.00,99.54
3847.00,99.54
3846.00,99.54
3845.00,99.54
3844.00,99.54
3843.00,99.54
3842.00,99.53
3841.00,99.53
3840.00,99.53
3839.00,99.53
3838.00,99.53
3837.00,99.53
3836.00,99.53
3835.00,99.53
3834.00,99.53
3833.00,99.53
3832.00,99.53
3831.00,99.53
3830.00,99.53
3829.00,99.53
3828.00,99.52
3827.00,99.52
3826.00,99.51
3825.00,99.50
3824.00,99.50
3823.00,99.50
3822.00,99.50
3821.00,99.50
3820.00,99.50
3819.00,99.50
3818.00,99.50
3817.00,99.50
3816.00,99.50
3815.00,99.51
3814.00,99.51
3813.00,99.51
3812.00,99.51
3811.00,99.51
3810.00,99.52
3809.00,99.52
3808.00,99.51
3807.00,99.51
3806.00,99.50
3805.00,99.51
3804.00,99.51
3803.00,99.51
3802.00,99.51
3801.00,99.50
3800.00,99.50
3799.00,99.50
3798.00,99.51
3797.00,99.51
3796.00,99.51
3795.00,99.51
3794.00,99.51
3793.00,99.52
3792.00,99.52
3791.00,99.52
3790.00,99.52
3789.00,99.52
3788.00,99.52
3787.00,99.52
3786.00,99.52
3785.00,99.52
3784.00,99.52
3783.00,99.52
3782.00,99.52
3781.00,99.52
3780.00,99.52
3779.00,99.52
3778.00,99.52
3777.00,99.52
3776.00,99.51
3775.00,99.51
3774.00,99.51
3773.00,99.51
3772.00,99.51
3771.00,99.51
3770.00,99.50
3769.00,99.50
3768.00,99.50
3767.00,99.50
3766.00,99.50
3765.00,99.50
3764.00,99.50
3763.00,99.50
3762.00,99.49
3761.00,99.49
3760.00,99.49
3759.00,99.49
3758.00,99.49
3757.00,99.49
3756.00,99.48
3755.00,99.48
3754.00,99.48
3753.00,99.48
3752.00,99.48
3751.00,99.48
3750.00,99.48
3749.00,99.48
3748.00,99.47
3747.00,99.48
3746.00,99.48
3745.00,99.49
3744.00,99.49
3743.00,99.49
3742.00,99.49
3741.00,99.49
3740.00,99.49
3739.00,99.49
3738.00,99.49
3737.00,99.48
3736.00,99.47
3735.00,99.47
3734.00,99.47
3733.00,99.48
3732.00,99.48
3731.00,99.48
3730.00,99.48
3729.00,99.48
3728.00,99.48
3727.00,99.49
3726.00,99.49
3725.00,99.49
3724.00,99.49
3723.00,99.49
3722.00,99.49
3721.00,99.49
3720.00,99.49
3719.00,99.49
3718.00,99.49
3717.00,99.48
3716.00,99.48
3715.00,99.48
3714.00,99.48
3713.00,99.48
3712.00,99.48
3711.00,99.48
3710.00,99.48
3709.00,99.48
3708.00,99.48
3707.00,99.48
3706.00,99.48
3705.00,99.48
3704.00,99.48
3703.00,99.48
3702.00,99.48
3701.00,99.48
3700.00,99.48
3699.00,99.48
3698.00,99.48
3697.00,99.48
3696.00,99.48
3695.00,99.48
3694.00,99.48
3693.00,99.47
3692.00,99.47
3691.00,99.48
3690.00,99.48
3689.00,99.48
3688.00,99.48
3687.00,99.48
3686.00,99.48
3685.00,99.48
3684.00,99.48
3683.00,99.48
3682.00,99.47
3681.00,99.47
3680.00,99.46
3679.00,99.45
3678.00,99.44
3677.00,99.44
3676.00,99.44
3675.00,99.44
3674.00,99.44
3673.00,99.45
3672.00,99.46
3671.00,99.47
3670.00,99.48
3669.00,99.48
3668.00,99.47
3667.00,99.47
3666.00,99.47
3665.00,99.47
3664.00,99.47
3663.00,99.47
3662.00,99.46
3661.00,99.46
3660.00,99.45
3659.00,99.45
3658.00,99.45
3657.00,99.44
3656.00,99.44
3655.00,99.43
3654.00,99.43
3653.00,99.42
3652.00,99.42
3651.00,99.41
3650.00,99.41
3649.00,99.41
3648.00,99.41
3647.00,99.42
3646.00,99.42
3645.00,99.43
3644.00,99.43
3643.00,99.44
3642.00,99.45
3641.00,99.46
3640.00,99.46
3639.00,99.47
3638.00,99.48
3637.00,99.48
3636.00,99.49
3635.00,99.48
3634.00,99.48
3633.00,99.48
3632.00,99.48
3631.00,99.48
3630.00,99.48
3629.00,99.48
3628.00,99.48
3627.00,99.48
3626.00,99.47
3625.00,99.47
3624.00,99.47
3623.00,99.48
3622.00,99.48
3621.00,99.47
3620.00,99.47
3619.00,99.47
3618.00,99.48
3617.00,99.48
3616.00,99.48
3615.00,99.48
3614.00,99.49
3613.00,99.49
3612.00,99.49
3611.00,99.49
3610.00,99.50
3609.00,99.50
3608.00,99.50
3607.00,99.51
3606.00,99.51
3605.00,99.51
3604.00,99.51
3603.00,99.52
3602.00,99.52
3601.00,99.52
3600.00,99.52
3599.00,99.51
3598.00,99.51
3597.00,99.51
3596.00,99.51
3595.00,99.50
3594.00,99.50
3593.00,99.50
3592.00,99.50
3591.00,99.50
3590.00,99.50
3589.00,99.50
3588.00,99.50
3587.00,99.50
3586.00,99.50
3585.00,99.50
3584.00,99.51
3583.00,99.51
3582.00,99.52
3581.00,99.52
3580.00,99.53
3579.00,99.53
3578.00,99.53
3577.00,99.53
3576.00,99.53
3575.00,99.53
3574.00,99.53
3573.00,99.53
3572.00,99.53
3571.00,99.53
3570.00,99.52
3569.00,99.52
3568.00,99.52
3567.00,99.52
3566.00,99.52
3565.00,99.53
3564.00,99.53
3563.00,99.53
3562.00,99.53
3561.00,99.53
3560.00,99.53
3559.00,99.54
3558.00,99.54
3557.00,99.54
3556.00,99.53
3555.00,99.53
3554.00,99.53
3553.00,99.52
3552.00,99.52
3551.00,99.52
3550.00,99.52
3549.00,99.52
3548.00,99.52
3547.00,99.52
3546.00,99.53
3545.00,99.53
3544.00,99.53
3543.00,99.52
3542.00,99.52
3541.00,99.52
3540.00,99.52
3539.00,99.52
3538.00,99.52
3537.00,99.53
3536.00,99.53
3535.00,99.52
3534.00,99.52
3533.00,99.52
3532.00,99.52
3531.00,99.52
3530.00,99.52
3529.00,99.52
3528.00,99.52
3527.00,99.52
3526.00,99.52
3525.00,99.52
3524.00,99.52
3523.00,99.52
3522.00,99.52
3521.00,99.52
3520.00,99.52
3519.00,99.52
3518.00,99.51
3517.00,99.51
3516.00,99.51
3515.00,99.51
3514.00,99.51
3513.00,99.51
3512.00,99.51
3511.00,99.51
3510.00,99.51
3509.00,99.51
3508.00,99.51
3507.00,99.51
3506.00,99.51
3505.00,99.52
3504.00,99.52
3503.00,99.51
3502.00,99.51
3501.00,99.51
3500.00,99.51
3499.00,99.51
3498.00,99.51
3497.00,99.51
3496.00,99.51
3495.00,99.51
3494.00,99.51
3493.00,99.51
3492.00,99.51
3491.00,99.51
3490.00,99.51
3489.00,99.51
3488.00,99.51
3487.00,99.51
3486.00,99.51
3485.00,99.51
3484.00,99.51
3483.00,99.51
3482.00,99.51
3481.00,99.51
3480.00,99.51
3479.00,99.51
3478.00,99.50
3477.00,99.50
3476.00,99.50
3475.00,99.50
3474.00,99.50
3473.00,99.50
3472.00,99.51
3471.00,99.51
3470.00,99.50
3469.00,99.50
3468.00,99.50
3467.00,99.50
3466.00,99.50
3465.00,99.50
3464.00,99.50
3463.00,99.50
3462.00,99.50
3461.00,99.50
3460.00,99.50
3459.00,99.49
3458.00,99.49
3457.00,99.49
3456.00,99.49
3455.00,99.49
3454.00,99.49
3453.00,99.50
3452.00,99.50
3451.00,99.50
3450.00,99.49
3449.00,99.49
3448.00,99.49
3447.00,99.49
3446.00,99.49
3445.00,99.49
3444.00,99.49
3443.00,99.48
3442.00,99.49
3441.00,99.49
3440.00,99.49
3439.00,99.49
3438.00,99.49
3437.00,99.49
3436.00,99.49
3435.00,99.49
3434.00,99.49
3433.00,99.49
3432.00,99.49
3431.00,99.49
3430.00,99.49
3429.00,99.49
3428.00,99.50
3427.00,99.50
3426.00,99.50
3425.00,99.50
3424.00,99.50
3423.00,99.50
3422.00,99.50
3421.00,99.50
3420.00,99.50
3419.00,99.51
3418.00,99.51
3417.00,99.51
3416.00,99.51
3415.00,99.51
3414.00,99.51
3413.00,99.50
3412.00,99.50
3411.00,99.50
3410.00,99.50
3409.00,99.49
3408.00,99.49
3407.00,99.49
3406.00,99.49
3405.00,99.49
3404.00,99.49
3403.00,99.48
3402.00,99.48
3401.00,99.48
3400.00,99.47
3399.00,99.47
3398.00,99.46
3397.00,99.46
3396.00,99.46
3395.00,99.46
3394.00,99.46
3393.00,99.46
3392.00,99.46
3391.00,99.46
3390.00,99.45
3389.00,99.45
3388.00,99.45
3387.00,99.46
3386.00,99.46
3385.00,99.47
3384.00,99.47
3383.00,99.48
3382.00,99.48
3381.00,99.48
3380.00,99.48
3379.00,99.48
3378.00,99.48
3377.00,99.48
3376.00,99.49
3375.00,99.49
3374.00,99.50
3373.00,99.50
3372.00,99.50
3371.00,99.50
3370.00,99.50
3369.00,99.51
3368.00,99.51
3367.00,99.51
3366.00,99.51
3365.00,99.51
3364.00,99.51
3363.00,99.51
3362.00,99.51
3361.00,99.51
3360.00,99.51
3359.00,99.51
3358.00,99.52
3357.00,99.52
3356.00,99.52
3355.00,99.52
3354.00,99.52
3353.00,99.51
3352.00,99.51
3351.00,99.51
3350.00,99.51
3349.00,99.51
3348.00,99.51
3347.00,99.52
3346.00,99.52
3345.00,99.52
3344.00,99.52
3343.00,99.52
3342.00,99.52
3341.00,99.52
3340.00,99.53
3339.00,99.53
3338.00,99.52
3337.00,99.52
3336.00,99.52
3335.00,99.52
3334.00,99.52
3333.00,99.52
3332.00,99.52
3331.00,99.52
3330.00,99.52
3329.00,99.52
3328.00,99.52
3327.00,99.52
3326.00,99.52
3325.00,99.52
3324.00,99.52
3323.00,99.52
3322.00,99.53
3321.00,99.53
3320.00,99.53
3319.00,99.53
3318.00,99.53
3317.00,99.53
3316.00,99.53
3315.00,99.53
3314.00,99.53
3313.00,99.53
3312.00,99.53
3311.00,99.54
3310.00,99.54
3309.00,99.54
3308.00,99.53
3307.00,99.53
3306.00,99.53
3305.00,99.53
3304.00,99.53
3303.00,99.53
3302.00,99.53
3301.00,99.53
3300.00,99.53
3299.00,99.53
3298.00,99.53
3297.00,99.53
3296.00,99.53
3295.00,99.53
3294.00,99.53
3293.00,99.53
3292.00,99.53
3291.00,99.53
3290.00,99.53
3289.00,99.53
3288.00,99.53
3287.00,99.54
3286.00,99.54
3285.00,99.54
3284.00,99.54
3283.00,99.53
3282.00,99.53
3281.00,99.53
3280.00,99.53
3279.00,99.53
3278.00,99.53
3277.00,99.53
3276.00,99.53
3275.00,99.53
3274.00,99.53
3273.00,99.53
3272.00,99.53
3271.00,99.54
3270.00,99.54
3269.00,99.53
3268.00,99.53
3267.00,99.53
3266.00,99.53
3265.00,99.53
3264.00,99.53
3263.00,99.53
3262.00,99.53
3261.00,99.52
3260.00,99.52
3259.00,99.52
3258.00,99.53
3257.00,99.53
3256.00,99.54
3255.00,99.54
3254.00,99.54
3253.00,99.54
3252.00,99.53
3251.00,99.53
3250.00,99.53
3249.00,99.53
3248.00,99.53
3247.00,99.52
3246.00,99.53
3245.00,99.53
3244.00,99.53
3243.00,99.53
3242.00,99.53
3241.00,99.53
3240.00,99.53
3239.00,99.53
3238.00,99.53
3237.00,99.53
3236.00,99.53
3235.00,99.53
3234.00,99.53
3233.00,99.53
3232.00,99.53
3231.00,99.53
3230.00,99.53
3229.00,99.53
3228.00,99.53
3227.00,99.53
3226.00,99.53
3225.00,99.53
3224.00,99.53
3223.00,99.52
3222.00,99.52
3221.00,99.51
3220.00,99.51
3219.00,99.51
3218.00,99.51
3217.00,99.50
3216.00,99.50
3215.00,99.49
3214.00,99.49
3213.00,99.49
3212.00,99.49
3211.00,99.49
3210.00,99.49
3209.00,99.48
3208.00,99.48
3207.00,99.47
3206.00,99.47
3205.00,99.47
3204.00,99.47
3203.00,99.46
3202.00,99.46
3201.00,99.46
3200.00,99.46
3199.00,99.46
3198.00,99.47
3197.00,99.47
3196.00,99.47
3195.00,99.47
3194.00,99.47
3193.00,99.47
3192.00,99.47
3191.00,99.47
3190.00,99.47
3189.00,99.47
3188.00,99.47
3187.00,99.47
3186.00,99.48
3185.00,99.48
3184.00,99.48
3183.00,99.48
3182.00,99.47
3181.00,99.47
3180.00,99.47
3179.00,99.48
3178.00,99.48
3177.00,99.48
3176.00,99.48
3175.00,99.48
3174.00,99.48
3173.00,99.48
3172.00,99.48
3171.00,99.47
3170.00,99.46
3169.00,99.45
3168.00,99.44
3167.00,99.43
3166.00,99.42
3165.00,99.42
3164.00,99.41
3163.00,99.41
3162.00,99.41
3161.00,99.42
3160.00,99.43
3159.00,99.44
3158.00,99.44
3157.00,99.45
3156.00,99.46
3155.00,99.46
3154.00,99.47
3153.00,99.47
3152.00,99.47
3151.00,99.48
3150.00,99.48
3149.00,99.48
3148.00,99.48
3147.00,99.48
3146.00,99.48
3145.00,99.48
3144.00,99.48
3143.00,99.48
3142.00,99.49
3141.00,99.49
3140.00,99.49
3139.00,99.48
3138.00,99.48
3137.00,99.48
3136.00,99.47
3135.00,99.47
3134.00,99.47
3133.00,99.47
3132.00,99.47
3131.00,99.47
3130.00,99.46
3129.00,99.46
3128.00,99.46
3127.00,99.45
3126.00,99.45
3125.00,99.44
3124.00,99.43
3123.00,99.42
3122.00,99.41
3121.00,99.39
3120.00,99.37
3119.00,99.35
3118.00,99.33
3117.00,99.30
3116.00,99.26
3115.00,99.22
3114.00,99.16
3113.00,99.10
3112.00,99.03
3111.00,98.95
3110.00,98.86
3109.00,98.76
3108.00,98.67
3107.00,98.58
3106.00,98.51
3105.00,98.46
3104.00,98.43
3103.00,98.42
3102.00,98.44
3101.00,98.46
3100.00,98.49
3099.00,98.52
3098.00,98.54
3097.00,98.54
3096.00,98.52
3095.00,98.47
3094.00,98.40
3093.00,98.29
3092.00,98.13
3091.00,97.94
3090.00,97.70
3089.00,97.43
3088.00,97.13
3087.00,96.82
3086.00,96.53
3085.00,96.28
3084.00,96.10
3083.00,96.01
3082.00,96.03
3081.00,96.13
3080.00,96.30
3079.00,96.50
3078.00,96.70
3077.00,96.88
3076.00,97.00
3075.00,97.08
3074.00,97.11
3073.00,97.10
3072.00,97.04
3071.00,96.94
3070.00,96.80
3069.00,96.61
3068.00,96.37
3067.00,96.08
3066.00,95.77
3065.00,95.44
3064.00,95.12
3063.00,94.83
3062.00,94.60
3061.00,94.46
3060.00,94.43
3059.00,94.51
3058.00,94.69
3057.00,94.95
3056.00,95.25
3055.00,95.57
3054.00,95.87
3053.00,96.15
3052.00,96.40
3051.00,96.62
3050.00,96.80
3049.00,96.95
3048.00,97.07
3047.00,97.15
3046.00,97.19
3045.00,97.19
3044.00,97.15
3043.00,97.08
3042.00,96.97
3041.00,96.82
3040.00,96.63
3039.00,96.39
3038.00,96.11
3037.00,95.76
3036.00,95.34
3035.00,94.85
3034.00,94.28
3033.00,93.63
3032.00,92.92
3031.00,92.16
3030.00,91.41
3029.00,90.71
3028.00,90.11
3027.00,89.69
3026.00,89.50
3025.00,89.57
3024.00,89.90
3023.00,90.47
3022.00,91.21
3021.00,92.05
3020.00,92.90
3019.00,93.72
3018.00,94.46
3017.00,95.10
3016.00,95.64
3015.00,96.09
3014.00,96.45
3013.00,96.73
3012.00,96.94
3011.00,97.09
3010.00,97.18
3009.00,97.22
3008.00,97.22
3007.00,97.17
3006.00,97.09
3005.00,97.00
3004.00,96.91
3003.00,96.85
3002.00,96.83
3001.00,96.87
3000.00,96.97
2999.00,97.14
2998.00,97.34
2997.00,97.55
2996.00,97.76
2995.00,97.95
2994.00,98.10
2993.00,98.23
2992.00,98.33
2991.00,98.41
2990.00,98.47
2989.00,98.52
2988.00,98.56
2987.00,98.58
2986.00,98.60
2985.00,98.62
2984.00,98.63
2983.00,98.64
2982.00,98.63
2981.00,98.63
2980.00,98.62
2979.00,98.60
2978.00,98.59
2977.00,98.58
2976.00,98.57
2975.00,98.56
2974.00,98.55
2973.00,98.54
2972.00,98.52
2971.00,98.50
2970.00,98.47
2969.00,98.43
2968.00,98.39
2967.00,98.34
2966.00,98.29
2965.00,98.23
2964.00,98.16
2963.00,98.09
2962.00,98.01
2961.00,97.92
2960.00,97.83
2959.00,97.73
2958.00,97.62
2957.00,97.51
2956.00,97.39
2955.00,97.26
2954.00,97.12
2953.00,96.96
2952.00,96.80
2951.00,96.62
2950.00,96.42
2949.00,96.21
2948.00,95.98
2947.00,95.73
2946.00,95.47
2945.00,95.19
2944.00,94.89
2943.00,94.57
2942.00,94.24
2941.00,93.88
2940.00,93.51
2939.00,93.13
2938.00,92.72
2937.00,92.30
2936.00,91.86
2935.00,91.41
2934.00,90.96
2933.00,90.51
2932.00,90.07
2931.00,89.64
2930.00,89.23
2929.00,88.85
2928.00,88.50
2927.00,88.20
2926.00,87.93
2925.00,87.72
2924.00,87.56
2923.00,87.45
2922.00,87.40
2921.00,87.40
2920.00,87.45
2919.00,87.55
2918.00,87.70
2917.00,87.89
2916.00,88.13
2915.00,88.40
2914.00,88.69
2913.00,89.00
2912.00,89.32
2911.00,89.64
2910.00,89.95
2909.00,90.26
2908.00,90.57
2907.00,90.88
2906.00,91.19
2905.00,91.50
2904.00,91.80
2903.00,92.11
2902.00,92.41
2901.00,92.71
2900.00,93.01
2899.00,93.29
2898.00,93.56
2897.00,93.80
2896.00,94.03
2895.00,94.24
2894.00,94.42
2893.00,94.60
2892.00,94.75
2891.00,94.90
2890.00,95.03
2889.00,95.15
2888.00,95.27
2887.00,95.38
2886.00,95.49
2885.00,95.60
2884.00,95.71
2883.00,95.81
2882.00,95.91
2881.00,96.00
2880.00,96.09
2879.00,96.19
2878.00,96.28
2877.00,96.36
2876.00,96.44
2875.00,96.51
2874.00,96.57
2873.00,96.62
2872.00,96.67
2871.00,96.70
2870.00,96.72
2869.00,96.72
2868.00,96.70
2867.00,96.66
2866.00,96.60
2865.00,96.52
2864.00,96.41
2863.00,96.28
2862.00,96.12
2861.00,95.95
2860.00,95.75
2859.00,95.55
2858.00,95.33
2857.00,95.10
2856.00,94.88
2855.00,94.65
2854.00,94.44
2853.00,94.25
2852.00,94.09
2851.00,93.99
2850.00,93.94
2849.00,93.97
2848.00,94.06
2847.00,94.21
2846.00,94.42
2845.00,94.67
2844.00,94.96
2843.00,95.27
2842.00,95.60
2841.00,95.93
2840.00,96.25
2839.00,96.55
2838.00,96.84
2837.00,97.09
2836.00,97.31
2835.00,97.49
2834.00,97.65
2833.00,97.78
2832.00,97.89
2831.00,97.98
2830.00,98.06
2829.00,98.12
2828.00,98.18
2827.00,98.22
2826.00,98.26
2825.00,98.30
2824.00,98.33
2823.00,98.36
2822.00,98.38
2821.00,98.40
2820.00,98.42
2819.00,98.43
2818.00,98.45
2817.00,98.46
2816.00,98.47
2815.00,98.49
2814.00,98.50
2813.00,98.51
2812.00,98.52
2811.00,98.53
2810.00,98.54
2809.00,98.55
2808.00,98.56
2807.00,98.57
2806.00,98.58
2805.00,98.60
2804.00,98.61
2803.00,98.62
2802.00,98.64
2801.00,98.65
2800.00,98.66
2799.00,98.67
2798.00,98.68
2797.00,98.69
2796.00,98.71
2795.00,98.72
2794.00,98.73
2793.00,98.74
2792.00,98.75
2791.00,98.76
2790.00,98.76
2789.00,98.77
2788.00,98.77
2787.00,98.78
2786.00,98.78
2785.00,98.78
2784.00,98.79
2783.00,98.79
2782.00,98.79
2781.00,98.79
2780.00,98.79
2779.00,98.80
2778.00,98.80
2777.00,98.81
2776.00,98.82
2775.00,98.83
2774.00,98.85
2773.00,98.86
2772.00,98.87
2771.00,98.88
2770.00,98.89
2769.00,98.89
2768.00,98.90
2767.00,98.91
2766.00,98.91
2765.00,98.92
2764.00,98.92
2763.00,98.93
2762.00,98.93
2761.00,98.94
2760.00,98.94
2759.00,98.94
2758.00,98.95
2757.00,98.96
2756.00,98.96
2755.00,98.96
2754.00,98.97
2753.00,98.97
2752.00,98.97
2751.00,98.97
2750.00,98.97
2749.00,98.98
2748.00,98.98
2747.00,98.98
2746.00,98.98
2745.00,98.98
2744.00,98.99
2743.00,98.99
2742.00,98.99
2741.00,98.99
2740.00,98.99
2739.00,98.99
2738.00,98.99
2737.00,98.98
2736.00,98.98
2735.00,98.98
2734.00,98.97
2733.00,98.97
2732.00,98.97
2731.00,98.96
2730.00,98.96
2729.00,98.97
2728.00,98.97
2727.00,98.97
2726.00,98.97
2725.00,98.97
2724.00,98.97
2723.00,98.97
2722.00,98.97
2721.00,98.97
2720.00,98.97
2719.00,98.97
2718.00,98.97
2717.00,98.97
2716.00,98.98
2715.00,98.98
2714.00,98.98
2713.00,98.98
2712.00,98.98
2711.00,98.98
2710.00,98.99
2709.00,98.99
2708.00,98.99
2707.00,99.00
2706.00,99.00
2705.00,99.00
2704.00,98.99
2703.00,98.99
2702.00,98.99
2701.00,98.99
2700.00,98.99
2699.00,98.99
2698.00,98.99
2697.00,98.99
2696.00,98.99
2695.00,98.99
2694.00,99.00
2693.00,99.00
2692.00,99.00
2691.00,99.00
2690.00,99.00
2689.00,99.00
2688.00,99.00
2687.00,99.00
2686.00,99.00
2685.00,99.00
2684.00,99.00
2683.00,99.00
2682.00,99.01
2681.00,99.01
2680.00,99.01
2679.00,99.01
2678.00,99.01
2677.00,99.01
2676.00,99.01
2675.00,99.01
2674.00,99.01
2673.00,99.01
2672.00,99.01
2671.00,99.01
2670.00,99.01
2669.00,99.01
2668.00,99.01
2667.00,99.01
2666.00,99.01
2665.00,99.01
2664.00,99.00
2663.00,98.99
2662.00,98.98
2661.00,98.98
2660.00,98.97
2659.00,98.96
2658.00,98.96
2657.00,98.95
2656.00,98.95
2655.00,98.94
2654.00,98.94
2653.00,98.93
2652.00,98.92
2651.00,98.92
2650.00,98.92
2649.00,98.92
2648.00,98.92
2647.00,98.92
2646.00,98.92
2645.00,98.92
2644.00,98.92
2643.00,98.91
2642.00,98.91
2641.00,98.90
2640.00,98.90
2639.00,98.89
2638.00,98.88
2637.00,98.87
2636.00,98.86
2635.00,98.85
2634.00,98.84
2633.00,98.84
2632.00,98.83
2631.00,98.83
2630.00,98.84
2629.00,98.85
2628.00,98.86
2627.00,98.88
2626.00,98.89
2625.00,98.90
2624.00,98.90
2623.00,98.91
2622.00,98.92
2621.00,98.92
2620.00,98.93
2619.00,98.93
2618.00,98.93
2617.00,98.93
2616.00,98.93
2615.00,98.92
2614.00,98.92
2613.00,98.92
2612.00,98.92
2611.00,98.91
2610.00,98.91
2609.00,98.90
2608.00,98.89
2607.00,98.88
2606.00,98.88
2605.00,98.87
2604.00,98.87
2603.00,98.87
2602.00,98.87
2601.00,98.88
2600.00,98.88
2599.00,98.89
2598.00,98.90
2597.00,98.91
2596.00,98.93
2595.00,98.94
2594.00,98.95
2593.00,98.95
2592.00,98.96
2591.00,98.96
2590.00,98.96
2589.00,98.96
2588.00,98.96
2587.00,98.95
2586.00,98.94
2585.00,98.94
2584.00,98.93
2583.00,98.93
2582.00,98.93
2581.00,98.92
2580.00,98.93
2579.00,98.93
2578.00,98.93
2577.00,98.94
2576.00,98.95
2575.00,98.96
2574.00,98.97
2573.00,98.98
2572.00,98.98
2571.00,98.99
2570.00,98.99
2569.00,98.99
2568.00,98.99
2567.00,98.99
2566.00,99.00
2565.00,98.99
2564.00,98.99
2563.00,98.99
2562.00,98.99
2561.00,98.99
2560.00,98.99
2559.00,99.00
2558.00,99.00
2557.00,99.00
2556.00,99.00
2555.00,99.00
2554.00,99.00
2553.00,99.00
2552.00,99.00
2551.00,98.99
2550.00,98.99
2549.00,98.99
2548.00,98.98
2547.00,98.98
2546.00,98.98
2545.00,98.98
2544.00,98.99
2543.00,98.99
2542.00,99.00
2541.00,99.00
2540.00,99.01
2539.00,99.01
2538.00,99.01
2537.00,99.01
2536.00,99.01
2535.00,99.01
2534.00,99.01
2533.00,99.01
2532.00,99.01
2531.00,99.01
2530.00,99.02
2529.00,99.01
2528.00,99.01
2527.00,99.01
2526.00,99.01
2525.00,99.01
2524.00,99.01
2523.00,99.01
2522.00,99.00
2521.00,99.00
2520.00,99.00
2519.00,99.00
2518.00,99.00
2517.00,99.00
2516.00,99.00
2515.00,99.00
2514.00,99.00
2513.00,99.00
2512.00,98.99
2511.00,98.99
2510.00,98.99
2509.00,99.00
2508.00,99.00
2507.00,99.00
2506.00,99.00
2505.00,99.00
2504.00,99.01
2503.00,99.01
2502.00,99.01
2501.00,99.02
2500.00,99.02
2499.00,99.02
2498.00,99.03
2497.00,99.03
2496.00,99.03
2495.00,99.03
2494.00,99.03
2493.00,99.03
2492.00,99.03
2491.00,99.03
2490.00,99.03
2489.00,99.03
2488.00,99.04
2487.00,99.04
2486.00,99.04
2485.00,99.05
2484.00,99.05
2483.00,99.05
2482.00,99.05
2481.00,99.06
2480.00,99.06
2479.00,99.06
2478.00,99.07
2477.00,99.07
2476.00,99.07
2475.00,99.08
2474.00,99.08
2473.00,99.09
2472.00,99.09
2471.00,99.09
2470.00,99.10
2469.00,99.10
2468.00,99.10
2467.00,99.10
2466.00,99.10
2465.00,99.10
2464.00,99.10
2463.00,99.11
2462.00,99.11
2461.00,99.10
2460.00,99.10
2459.00,99.09
2458.00,99.09
2457.00,99.08
2456.00,99.08
2455.00,99.08
2454.00,99.08
2453.00,99.08
2452.00,99.08
2451.00,99.09
2450.00,99.09
2449.00,99.09
2448.00,99.09
2447.00,99.09
2446.00,99.10
2445.00,99.10
2444.00,99.10
2443.00,99.10
2442.00,99.10
2441.00,99.10
2440.00,99.10
2439.00,99.10
2438.00,99.10
2437.00,99.11
2436.00,99.11
2435.00,99.12
2434.00,99.12
2433.00,99.13
2432.00,99.13
2431.00,99.13
2430.00,99.14
2429.00,99.14
2428.00,99.15
2427.00,99.15
2426.00,99.15
2425.00,99.16
2424.00,99.16
2423.00,99.16
2422.00,99.16
2421.00,99.17
2420.00,99.17
2419.00,99.17
2418.00,99.17
2417.00,99.17
2416.00,99.17
2415.00,99.17
2414.00,99.17
2413.00,99.17
2412.00,99.16
2411.00,99.16
2410.00,99.16
2409.00,99.16
2408.00,99.16
2407.00,99.17
2406.00,99.17
2405.00,99.17
2404.00,99.17
2403.00,99.18
2402.00,99.18
2401.00,99.18
2400.00,99.19
2399.00,99.19
2398.00,99.18
2397.00,99.18
2396.00,99.18
2395.00,99.18
2394.00,99.18
2393.00,99.18
2392.00,99.18
2391.00,99.18
2390.00,99.18
2389.00,99.18
2388.00,99.18
2387.00,99.18
2386.00,99.18
2385.00,99.18
2384.00,99.17
2383.00,99.17
2382.00,99.17
2381.00,99.16
2380.00,99.16
2379.00,99.16
2378.00,99.16
2377.00,99.15
2376.00,99.15
2375.00,99.15
2374.00,99.14
2373.00,99.14
2372.00,99.14
2371.00,99.15
2370.00,99.15
2369.00,99.15
2368.00,99.15
2367.00,99.14
2366.00,99.14
2365.00,99.13
2364.00,99.12
2363.00,99.10
2362.00,99.07
2361.00,99.06
2360.00,99.05
2359.00,99.05
2358.00,99.05
2357.00,99.05
2356.00,99.05
2355.00,99.05
2354.00,99.04
2353.00,99.04
2352.00,99.03
2351.00,99.03
2350.00,99.02
2349.00,99.02
2348.00,99.02
2347.00,99.01
2346.00,99.00
2345.00,98.97
2344.00,98.95
2343.00,98.93
2342.00,98.92
2341.00,98.91
2340.00,98.90
2339.00,98.90
2338.00,98.89
2337.00,98.88
2336.00,98.88
2335.00,98.89
2334.00,98.90
2333.00,98.92
2332.00,98.95
2331.00,98.98
2330.00,99.00
2329.00,99.00
2328.00,98.99
2327.00,98.96
2326.00,98.91
2325.00,98.85
2324.00,98.82
2323.00,98.81
2322.00,98.82
2321.00,98.84
2320.00,98.85
2319.00,98.86
2318.00,98.86
2317.00,98.85
2316.00,98.84
2315.00,98.83
2314.00,98.83
2313.00,98.83
2312.00,98.83
2311.00,98.84
2310.00,98.85
2309.00,98.86
2308.00,98.88
2307.00,98.90
2306.00,98.92
2305.00,98.94
2304.00,98.95
2303.00,98.96
2302.00,98.97
2301.00,98.96
2300.00,98.95
2299.00,98.95
2298.00,98.94
2297.00,98.94
2296.00,98.93
2295.00,98.93
2294.00,98.92
2293.00,98.91
2292.00,98.90
2291.00,98.89
2290.00,98.88
2289.00,98.87
2288.00,98.87
2287.00,98.87
2286.00,98.86
2285.00,98.86
2284.00,98.86
2283.00,98.86
2282.00,98.87
2281.00,98.89
2280.00,98.90
2279.00,98.90
2278.00,98.91
2277.00,98.91
2276.00,98.92
2275.00,98.93
2274.00,98.94
2273.00,98.95
2272.00,98.95
2271.00,98.95
2270.00,98.94
2269.00,98.94
2268.00,98.94
2267.00,98.95
2266.00,98.96
2265.00,98.97
2264.00,98.96
2263.00,98.96
2262.00,98.95
2261.00,98.94
2260.00,98.93
2259.00,98.91
2258.00,98.89
2257.00,98.89
2256.00,98.90
2255.00,98.92
2254.00,98.94
2253.00,98.95
2252.00,98.95
2251.00,98.95
2250.00,98.94
2249.00,98.94
2248.00,98.94
2247.00,98.93
2246.00,98.93
2245.00,98.92
2244.00,98.91
2243.00,98.90
2242.00,98.91
2241.00,98.91
2240.00,98.92
2239.00,98.93
2238.00,98.94
2237.00,98.95
2236.00,98.95
2235.00,98.94
2234.00,98.93
2233.00,98.92
2232.00,98.92
2231.00,98.92
2230.00,98.93
2229.00,98.93
2228.00,98.93
2227.00,98.93
2226.00,98.94
2225.00,98.94
2224.00,98.94
2223.00,98.94
2222.00,98.94
2221.00,98.93
2220.00,98.93
2219.00,98.92
2218.00,98.92
2217.00,98.92
2216.00,98.92
2215.00,98.92
2214.00,98.92
2213.00,98.93
2212.00,98.93
2211.00,98.93
2210.00,98.93
2209.00,98.93
2208.00,98.93
2207.00,98.94
2206.00,98.94
2205.00,98.94
2204.00,98.94
2203.00,98.93
2202.00,98.93
2201.00,98.93
2200.00,98.92
2199.00,98.91
2198.00,98.90
2197.00,98.90
2196.00,98.89
2195.00,98.89
2194.00,98.88
2193.00,98.87
2192.00,98.87
2191.00,98.86
2190.00,98.84
2189.00,98.83
2188.00,98.81
2187.00,98.80
2186.00,98.79
2185.00,98.78
2184.00,98.79
2183.00,98.82
2182.00,98.88
2181.00,98.92
2180.00,98.94
2179.00,98.94
2178.00,98.92
2177.00,98.91
2176.00,98.92
2175.00,98.94
2174.00,98.96
2173.00,98.95
2172.00,98.92
2171.00,98.87
2170.00,98.83
2169.00,98.79
2168.00,98.76
2167.00,98.73
2166.00,98.71
2165.00,98.70
2164.00,98.68
2163.00,98.66
2162.00,98.65
2161.00,98.68
2160.00,98.79
2159.00,98.96
2158.00,99.15
2157.00,99.27
2156.00,99.31
2155.00,99.30
2154.00,99.28
2153.00,99.26
2152.00,99.24
2151.00,99.22
2150.00,99.21
2149.00,99.20
2148.00,99.20
2147.00,99.21
2146.00,99.22
2145.00,99.23
2144.00,99.24
2143.00,99.24
2142.00,99.25
2141.00,99.25
2140.00,99.25
2139.00,99.25
2138.00,99.26
2137.00,99.28
2136.00,99.30
2135.00,99.33
2134.00,99.35
2133.00,99.36
2132.00,99.36
2131.00,99.33
2130.00,99.31
2129.00,99.29
2128.00,99.27
2127.00,99.26
2126.00,99.25
2125.00,99.24
2124.00,99.23
2123.00,99.21
2122.00,99.20
2121.00,99.19
2120.00,99.18
2119.00,99.17
2118.00,99.15
2117.00,99.13
2116.00,99.10
2115.00,99.07
2114.00,99.06
2113.00,99.06
2112.00,99.06
2111.00,99.06
2110.00,99.07
2109.00,99.08
2108.00,99.08
2107.00,99.08
2106.00,99.07
2105.00,99.07
2104.00,99.07
2103.00,99.07
2102.00,99.07
2101.00,99.07
2100.00,99.07
2099.00,99.08
2098.00,99.09
2097.00,99.11
2096.00,99.13
2095.00,99.16
2094.00,99.18
2093.00,99.18
2092.00,99.18
2091.00,99.16
2090.00,99.15
2089.00,99.14
2088.00,99.12
2087.00,99.11
2086.00,99.10
2085.00,99.09
2084.00,99.08
2083.00,99.07
2082.00,99.07
2081.00,99.07
2080.00,99.06
2079.00,99.06
2078.00,99.05
2077.00,99.05
2076.00,99.05
2075.00,99.05
2074.00,99.05
2073.00,99.05
2072.00,99.05
2071.00,99.05
2070.00,99.04
2069.00,99.04
2068.00,99.04
2067.00,99.04
2066.00,99.05
2065.00,99.05
2064.00,99.04
2063.00,99.04
2062.00,99.05
2061.00,99.06
2060.00,99.06
2059.00,99.07
2058.00,99.06
2057.00,99.05
2056.00,99.04
2055.00,99.03
2054.00,99.02
2053.00,98.98
2052.00,98.91
2051.00,98.85
2050.00,98.83
2049.00,98.85
2048.00,98.90
2047.00,98.95
2046.00,98.97
2045.00,98.97
2044.00,98.96
2043.00,98.94
2042.00,98.92
2041.00,98.90
2040.00,98.89
2039.00,98.88
2038.00,98.87
2037.00,98.87
2036.00,98.88
2035.00,98.90
2034.00,98.92
2033.00,98.94
2032.00,98.96
2031.00,98.97
2030.00,98.97
2029.00,98.97
2028.00,98.97
2027.00,98.97
2026.00,98.98
2025.00,98.98
2024.00,98.97
2023.00,98.97
2022.00,98.98
2021.00,99.00
2020.00,99.01
2019.00,99.02
2018.00,99.02
2017.00,99.03
2016.00,99.02
2015.00,99.01
2014.00,98.99
2013.00,98.98
2012.00,98.96
2011.00,98.94
2010.00,98.94
2009.00,98.95
2008.00,98.98
2007.00,99.01
2006.00,99.05
2005.00,99.07
2004.00,99.08
2003.00,99.08
2002.00,99.07
2001.00,99.06
2000.00,99.04
1999.00,99.02
1998.00,98.98
1997.00,98.95
1996.00,98.92
1995.00,98.90
1994.00,98.89
1993.00,98.87
1992.00,98.85
1991.00,98.83
1990.00,98.81
1989.00,98.78
1988.00,98.75
1987.00,98.72
1986.00,98.71
1985.00,98.71
1984.00,98.70
1983.00,98.68
1982.00,98.63
1981.00,98.58
1980.00,98.54
1979.00,98.55
1978.00,98.60
1977.00,98.68
1976.00,98.75
1975.00,98.78
1974.00,98.79
1973.00,98.77
1972.00,98.74
1971.00,98.70
1970.00,98.66
1969.00,98.62
1968.00,98.57
1967.00,98.51
1966.00,98.45
1965.00,98.38
1964.00,98.32
1963.00,98.27
1962.00,98.23
1961.00,98.20
1960.00,98.20
1959.00,98.19
1958.00,98.18
1957.00,98.14
1956.00,98.08
1955.00,98.01
1954.00,97.95
1953.00,97.90
1952.00,97.85
1951.00,97.80
1950.00,97.75
1949.00,97.69
1948.00,97.63
1947.00,97.56
1946.00,97.51
1945.00,97.47
1944.00,97.44
1943.00,97.43
1942.00,97.44
1941.00,97.47
1940.00,97.52
1939.00,97.58
1938.00,97.66
1937.00,97.76
1936.00,97.87
1935.00,97.98
1934.00,98.08
1933.00,98.18
1932.00,98.27
1931.00,98.35
1930.00,98.43
1929.00,98.50
1928.00,98.56
1927.00,98.61
1926.00,98.65
1925.00,98.69
1924.00,98.72
1923.00,98.75
1922.00,98.77
1921.00,98.79
1920.00,98.81
1919.00,98.83
1918.00,98.86
1917.00,98.89
1916.00,98.91
1915.00,98.92
1914.00,98.93
1913.00,98.94
1912.00,98.94
1911.00,98.94
1910.00,98.94
1909.00,98.94
1908.00,98.94
1907.00,98.93
1906.00,98.93
1905.00,98.92
1904.00,98.91
1903.00,98.90
1902.00,98.88
1901.00,98.86
1900.00,98.83
1899.00,98.80
1898.00,98.77
1897.00,98.73
1896.00,98.70
1895.00,98.66
1894.00,98.62
1893.00,98.57
1892.00,98.52
1891.00,98.47
1890.00,98.41
1889.00,98.35
1888.00,98.30
1887.00,98.25
1886.00,98.21
1885.00,98.18
1884.00,98.14
1883.00,98.11
1882.00,98.07
1881.00,98.05
1880.00,98.03
1879.00,98.00
1878.00,97.98
1877.00,97.95
1876.00,97.93
1875.00,97.90
1874.00,97.87
1873.00,97.85
1872.00,97.83
1871.00,97.82
1870.00,97.81
1869.00,97.82
1868.00,97.84
1867.00,97.87
1866.00,97.91
1865.00,97.96
1864.00,98.03
1863.00,98.10
1862.00,98.18
1861.00,98.26
1860.00,98.34
1859.00,98.42
1858.00,98.50
1857.00,98.57
1856.00,98.63
1855.00,98.68
1854.00,98.73
1853.00,98.78
1852.00,98.82
1851.00,98.85
1850.00,98.88
1849.00,98.90
1848.00,98.92
1847.00,98.94
1846.00,98.95
1845.00,98.97
1844.00,98.98
1843.00,98.98
1842.00,98.99
1841.00,99.00
1840.00,99.00
1839.00,99.00
1838.00,99.00
1837.00,99.00
1836.00,98.99
1835.00,98.98
1834.00,98.96
1833.00,98.94
1832.00,98.92
1831.00,98.90
1830.00,98.86
1829.00,98.83
1828.00,98.79
1827.00,98.76
1826.00,98.73
1825.00,98.69
1824.00,98.65
1823.00,98.61
1822.00,98.57
1821.00,98.53
1820.00,98.50
1819.00,98.46
1818.00,98.44
1817.00,98.40
1816.00,98.36
1815.00,98.31
1814.00,98.26
1813.00,98.21
1812.00,98.15
1811.00,98.09
1810.00,98.03
1809.00,97.98
1808.00,97.93
1807.00,97.88
1806.00,97.84
1805.00,97.81
1804.00,97.79
1803.00,97.77
1802.00,97.77
1801.00,97.78
1800.00,97.81
1799.00,97.85
1798.00,97.91
1797.00,97.97
1796.00,98.04
1795.00,98.12
1794.00,98.20
1793.00,98.30
1792.00,98.40
1791.00,98.48
1790.00,98.55
1789.00,98.60
1788.00,98.66
1787.00,98.70
1786.00,98.74
1785.00,98.77
1784.00,98.80
1783.00,98.81
1782.00,98.82
1781.00,98.82
1780.00,98.81
1779.00,98.80
1778.00,98.80
1777.00,98.80
1776.00,98.80
1775.00,98.80
1774.00,98.80
1773.00,98.81
1772.00,98.82
1771.00,98.83
1770.00,98.84
1769.00,98.85
1768.00,98.84
1767.00,98.83
1766.00,98.82
1765.00,98.80
1764.00,98.78
1763.00,98.76
1762.00,98.72
1761.00,98.68
1760.00,98.64
1759.00,98.60
1758.00,98.56
1757.00,98.51
1756.00,98.45
1755.00,98.40
1754.00,98.36
1753.00,98.33
1752.00,98.28
1751.00,98.23
1750.00,98.19
1749.00,98.16
1748.00,98.14
1747.00,98.13
1746.00,98.13
1745.00,98.14
1744.00,98.14
1743.00,98.15
1742.00,98.17
1741.00,98.20
1740.00,98.23
1739.00,98.26
1738.00,98.29
1737.00,98.32
1736.00,98.36
1735.00,98.41
1734.00,98.46
1733.00,98.51
1732.00,98.55
1731.00,98.59
1730.00,98.63
1729.00,98.66
1728.00,98.68
1727.00,98.70
1726.00,98.72
1725.00,98.74
1724.00,98.76
1723.00,98.78
1722.00,98.79
1721.00,98.80
1720.00,98.81
1719.00,98.83
1718.00,98.84
1717.00,98.85
1716.00,98.86
1715.00,98.88
1714.00,98.90
1713.00,98.91
1712.00,98.91
1711.00,98.92
1710.00,98.92
1709.00,98.92
1708.00,98.92
1707.00,98.91
1706.00,98.91
1705.00,98.89
1704.00,98.88
1703.00,98.87
1702.00,98.87
1701.00,98.86
1700.00,98.86
1699.00,98.85
1698.00,98.86
1697.00,98.87
1696.00,98.87
1695.00,98.87
1694.00,98.87
1693.00,98.87
1692.00,98.87
1691.00,98.86
1690.00,98.84
1689.00,98.81
1688.00,98.79
1687.00,98.76
1686.00,98.75
1685.00,98.72
1684.00,98.68
1683.00,98.65
1682.00,98.64
1681.00,98.63
1680.00,98.62
1679.00,98.60
1678.00,98.58
1677.00,98.57
1676.00,98.55
1675.00,98.53
1674.00,98.52
1673.00,98.51
1672.00,98.50
1671.00,98.50
1670.00,98.49
1669.00,98.48
1668.00,98.47
1667.00,98.48
1666.00,98.48
1665.00,98.49
1664.00,98.51
1663.00,98.52
1662.00,98.54
1661.00,98.57
1660.00,98.59
1659.00,98.62
1658.00,98.64
1657.00,98.65
1656.00,98.65
1655.00,98.66
1654.00,98.68
1653.00,98.68
1652.00,98.69
1651.00,98.70
1650.00,98.71
1649.00,98.71
1648.00,98.70
1647.00,98.69
1646.00,98.69
1645.00,98.71
1644.00,98.73
1643.00,98.76
1642.00,98.79
1641.00,98.82
1640.00,98.85
1639.00,98.86
1638.00,98.88
1637.00,98.89
1636.00,98.89
1635.00,98.89
1634.00,98.89
1633.00,98.89
1632.00,98.89
1631.00,98.88
1630.00,98.87
1629.00,98.86
1628.00,98.84
1627.00,98.82
1626.00,98.81
1625.00,98.79
1624.00,98.77
1623.00,98.75
1622.00,98.73
1621.00,98.71
1620.00,98.68
1619.00,98.64
1618.00,98.59
1617.00,98.51
1616.00,98.41
1615.00,98.32
1614.00,98.21
1613.00,98.06
1612.00,97.85
1611.00,97.53
1610.00,97.09
1609.00,96.48
1608.00,95.69
1607.00,94.73
1606.00,93.65
1605.00,92.49
1604.00,91.34
1603.00,90.35
1602.00,89.73
1601.00,89.59
1600.00,89.93
1599.00,90.65
1598.00,91.62
1597.00,92.64
1596.00,93.58
1595.00,94.38
1594.00,95.03
1593.00,95.53
1592.00,95.92
1591.00,96.22
1590.00,96.43
1589.00,96.51
1588.00,96.44
1587.00,96.20
1586.00,95.84
1585.00,95.45
1584.00,95.16
1583.00,95.10
1582.00,95.32
1581.00,95.73
1580.00,96.19
1579.00,96.61
1578.00,96.98
1577.00,97.30
1576.00,97.57
1575.00,97.76
1574.00,97.89
1573.00,97.99
1572.00,98.08
1571.00,98.17
1570.00,98.27
1569.00,98.35
1568.00,98.40
1567.00,98.44
1566.00,98.48
1565.00,98.51
1564.00,98.53
1563.00,98.54
1562.00,98.54
1561.00,98.55
1560.00,98.55
1559.00,98.53
1558.00,98.50
1557.00,98.50
1556.00,98.48
1555.00,98.46
1554.00,98.42
1553.00,98.38
1552.00,98.33
1551.00,98.28
1550.00,98.22
1549.00,98.15
1548.00,98.09
1547.00,98.04
1546.00,97.99
1545.00,97.93
1544.00,97.87
1543.00,97.82
1542.00,97.81
1541.00,97.83
1540.00,97.88
1539.00,97.93
1538.00,97.99
1537.00,98.05
1536.00,98.11
1535.00,98.19
1534.00,98.28
1533.00,98.37
1532.00,98.45
1531.00,98.50
1530.00,98.56
1529.00,98.61
1528.00,98.65
1527.00,98.68
1526.00,98.71
1525.00,98.72
1524.00,98.73
1523.00,98.74
1522.00,98.76
1521.00,98.76
1520.00,98.76
1519.00,98.75
1518.00,98.75
1517.00,98.74
1516.00,98.72
1515.00,98.69
1514.00,98.67
1513.00,98.65
1512.00,98.62
1511.00,98.58
1510.00,98.54
1509.00,98.50
1508.00,98.40
1507.00,98.21
1506.00,98.01
1505.00,97.82
1504.00,97.63
1503.00,97.37
1502.00,96.99
1501.00,96.42
1500.00,95.54
1499.00,94.18
1498.00,91.95
1497.00,88.59
1496.00,84.49
1495.00,80.69
1494.00,77.95
1493.00,76.62
1492.00,76.95
1491.00,79.05
1490.00,82.37
1489.00,85.70
1488.00,88.30
1487.00,90.21
1486.00,91.65
1485.00,92.78
1484.00,93.69
1483.00,94.45
1482.00,95.09
1481.00,95.59
1480.00,95.94
1479.00,96.21
1478.00,96.43
1477.00,96.60
1476.00,96.72
1475.00,96.84
1474.00,96.94
1473.00,97.00
1472.00,97.04
1471.00,97.08
1470.00,97.11
1469.00,97.12
1468.00,97.11
1467.00,97.10
1466.00,97.06
1465.00,96.96
1464.00,96.80
1463.00,96.62
1462.00,96.39
1461.00,96.07
1460.00,95.55
1459.00,94.58
1458.00,92.48
1457.00,88.91
1456.00,84.92
1455.00,81.58
1454.00,78.97
1453.00,77.12
1452.00,76.36
1451.00,76.76
1450.00,78.00
1449.00,79.62
1448.00,81.26
1447.00,82.69
1446.00,83.85
1445.00,84.88
1444.00,85.88
1443.00,86.89
1442.00,87.82
1441.00,88.64
1440.00,89.37
1439.00,90.05
1438.00,90.79
1437.00,91.64
1436.00,92.49
1435.00,93.18
1434.00,93.70
1433.00,94.17
1432.00,94.63
1431.00,95.07
1430.00,95.44
1429.00,95.76
1428.00,96.01
1427.00,96.20
1426.00,96.35
1425.00,96.48
1424.00,96.61
1423.00,96.71
1422.00,96.78
1421.00,96.85
1420.00,96.94
1419.00,97.02
1418.00,97.08
1417.00,97.14
1416.00,97.20
1415.00,97.24
1414.00,97.28
1413.00,97.32
1412.00,97.36
1411.00,97.39
1410.00,97.41
1409.00,97.43
1408.00,97.45
1407.00,97.47
1406.00,97.48
1405.00,97.49
1404.00,97.51
1403.00,97.51
1402.00,97.51
1401.00,97.51
1400.00,97.50
1399.00,97.48
1398.00,97.44
1397.00,97.40
1396.00,97.35
1395.00,97.27
1394.00,97.16
1393.00,97.05
1392.00,96.94
1391.00,96.82
1390.00,96.68
1389.00,96.51
1388.00,96.32
1387.00,96.12
1386.00,95.93
1385.00,95.76
1384.00,95.62
1383.00,95.47
1382.00,95.32
1381.00,95.18
1380.00,95.04
1379.00,94.88
1378.00,94.73
1377.00,94.59
1376.00,94.45
1375.00,94.33
1374.00,94.23
1373.00,94.17
1372.00,94.14
1371.00,94.14
1370.00,94.15
1369.00,94.18
1368.00,94.21
1367.00,94.24
1366.00,94.28
1365.00,94.31
1364.00,94.35
1363.00,94.40
1362.00,94.46
1361.00,94.52
1360.00,94.59
1359.00,94.67
1358.00,94.74
1357.00,94.81
1356.00,94.87
1355.00,94.91
1354.00,94.93
1353.00,94.94
1352.00,94.95
1351.00,94.96
1350.00,94.96
1349.00,94.98
1348.00,95.01
1347.00,95.06
1346.00,95.11
1345.00,95.18
1344.00,95.26
1343.00,95.35
1342.00,95.43
1341.00,95.51
1340.00,95.57
1339.00,95.60
1338.00,95.60
1337.00,95.57
1336.00,95.51
1335.00,95.43
1334.00,95.33
1333.00,95.21
1332.00,95.09
1331.00,94.97
1330.00,94.89
1329.00,94.84
1328.00,94.83
1327.00,94.86
1326.00,94.91
1325.00,94.98
1324.00,95.06
1323.00,95.12
1322.00,95.18
1321.00,95.22
1320.00,95.23
1319.00,95.22
1318.00,95.20
1317.00,95.15
1316.00,95.10
1315.00,95.05
1314.00,95.01
1313.00,94.97
1312.00,94.96
1311.00,94.97
1310.00,95.00
1309.00,95.05
1308.00,95.12
1307.00,95.20
1306.00,95.27
1305.00,95.35
1304.00,95.43
1303.00,95.52
1302.00,95.60
1301.00,95.69
1300.00,95.76
1299.00,95.83
1298.00,95.89
1297.00,95.93
1296.00,95.96
1295.00,95.98
1294.00,96.00
1293.00,96.03
1292.00,96.06
1291.00,96.10
1290.00,96.15
1289.00,96.19
1288.00,96.24
1287.00,96.27
1286.00,96.30
1285.00,96.32
1284.00,96.33
1283.00,96.34
1282.00,96.35
1281.00,96.38
1280.00,96.41
1279.00,96.46
1278.00,96.51
1277.00,96.58
1276.00,96.66
1275.00,96.73
1274.00,96.81
1273.00,96.88
1272.00,96.95
1271.00,97.01
1270.00,97.07
1269.00,97.12
1268.00,97.17
1267.00,97.22
1266.00,97.27
1265.00,97.32
1264.00,97.36
1263.00,97.40
1262.00,97.43
1261.00,97.46
1260.00,97.49
1259.00,97.52
1258.00,97.54
1257.00,97.56
1256.00,97.58
1255.00,97.59
1254.00,97.60
1253.00,97.60
1252.00,97.61
1251.00,97.61
1250.00,97.62
1249.00,97.62
1248.00,97.63
1247.00,97.65
1246.00,97.67
1245.00,97.69
1244.00,97.72
1243.00,97.74
1242.00,97.75
1241.00,97.77
1240.00,97.79
1239.00,97.81
1238.00,97.83
1237.00,97.84
1236.00,97.85
1235.00,97.85
1234.00,97.85
1233.00,97.83
1232.00,97.82
1231.00,97.81
1230.00,97.79
1229.00,97.77
1228.00,97.76
1227.00,97.74
1226.00,97.72
1225.00,97.70
1224.00,97.70
1223.00,97.70
1222.00,97.70
1221.00,97.70
1220.00,97.69
1219.00,97.68
1218.00,97.67
1217.00,97.65
1216.00,97.63
1215.00,97.60
1214.00,97.57
1213.00,97.54
1212.00,97.51
1211.00,97.46
1210.00,97.40
1209.00,97.33
1208.00,97.26
1207.00,97.19
1206.00,97.10
1205.00,97.01
1204.00,96.91
1203.00,96.80
1202.00,96.68
1201.00,96.58
1200.00,96.49
1199.00,96.41
1198.00,96.35
1197.00,96.30
1196.00,96.27
1195.00,96.24
1194.00,96.22
1193.00,96.20
1192.00,96.18
1191.00,96.15
1190.00,96.11
1189.00,96.05
1188.00,95.95
1187.00,95.81
1186.00,95.60
1185.00,95.35
1184.00,95.09
1183.00,94.85
1182.00,94.69
1181.00,94.65
1180.00,94.76
1179.00,95.00
1178.00,95.32
1177.00,95.67
1176.00,96.00
1175.00,96.27
1174.00,96.47
1173.00,96.62
1172.00,96.73
1171.00,96.81
1170.00,96.87
1169.00,96.90
1168.00,96.93
1167.00,96.95
1166.00,96.94
1165.00,96.92
1164.00,96.87
1163.00,96.79
1162.00,96.65
1161.00,96.44
1160.00,96.17
1159.00,95.82
1158.00,95.44
1157.00,95.05
1156.00,94.74
1155.00,94.55
1154.00,94.54
1153.00,94.72
1152.00,95.05
1151.00,95.46
1150.00,95.88
1149.00,96.24
1148.00,96.54
1147.00,96.77
1146.00,96.95
1145.00,97.10
1144.00,97.24
1143.00,97.36
1142.00,97.46
1141.00,97.55
1140.00,97.63
1139.00,97.70
1138.00,97.76
1137.00,97.82
1136.00,97.86
1135.00,97.89
1134.00,97.92
1133.00,97.94
1132.00,97.96
1131.00,97.98
1130.00,98.00
1129.00,98.01
1128.00,98.02
1127.00,98.02
1126.00,98.01
1125.00,97.99
1124.00,97.97
1123.00,97.95
1122.00,97.90
1121.00,97.84
1120.00,97.76
1119.00,97.67
1118.00,97.57
1117.00,97.47
1116.00,97.38
1115.00,97.30
1114.00,97.24
1113.00,97.20
1112.00,97.17
1111.00,97.17
1110.00,97.18
1109.00,97.21
1108.00,97.24
1107.00,97.27
1106.00,97.28
1105.00,97.29
1104.00,97.29
1103.00,97.28
1102.00,97.26
1101.00,97.24
1100.00,97.20
1099.00,97.16
1098.00,97.11
1097.00,97.06
1096.00,97.00
1095.00,96.95
1094.00,96.91
1093.00,96.86
1092.00,96.82
1091.00,96.78
1090.00,96.72
1089.00,96.64
1088.00,96.55
1087.00,96.44
1086.00,96.31
1085.00,96.16
1084.00,96.01
1083.00,95.84
1082.00,95.67
1081.00,95.50
1080.00,95.32
1079.00,95.13
1078.00,94.93
1077.00,94.70
1076.00,94.42
1075.00,94.12
1074.00,93.79
1073.00,93.46
1072.00,93.17
1071.00,92.93
1070.00,92.76
1069.00,92.68
1068.00,92.69
1067.00,92.80
1066.00,92.99
1065.00,93.23
1064.00,93.50
1063.00,93.78
1062.00,94.05
1061.00,94.30
1060.00,94.53
1059.00,94.74
1058.00,94.94
1057.00,95.11
1056.00,95.27
1055.00,95.42
1054.00,95.55
1053.00,95.68
1052.00,95.80
1051.00,95.91
1050.00,96.01
1049.00,96.11
1048.00,96.19
1047.00,96.27
1046.00,96.34
1045.00,96.39
1044.00,96.43
1043.00,96.46
1042.00,96.46
1041.00,96.42
1040.00,96.31
1039.00,96.12
1038.00,95.81
1037.00,95.33
1036.00,94.64
1035.00,93.73
1034.00,92.61
1033.00,91.37
1032.00,90.13
1031.00,89.01
1030.00,88.11
1029.00,87.51
1028.00,87.27
1027.00,87.43
1026.00,87.96
1025.00,88.70
1024.00,89.50
1023.00,90.27
1022.00,90.94
1021.00,91.51
1020.00,91.99
1019.00,92.42
1018.00,92.79
1017.00,93.11
1016.00,93.40
1015.00,93.65
1014.00,93.87
1013.00,94.06
1012.00,94.23
1011.00,94.38
1010.00,94.49
1009.00,94.55
1008.00,94.56
1007.00,94.49
1006.00,94.36
1005.00,94.21
1004.00,94.09
1003.00,94.07
1002.00,94.20
1001.00,94.46
1000.00,94.79
999.00,95.11
998.00,95.37
997.00,95.55
996.00,95.67
995.00,95.74
994.00,95.79
993.00,95.81
992.00,95.81
991.00,95.78
990.00,95.74
989.00,95.67
988.00,95.58
987.00,95.47
986.00,95.35
985.00,95.20
984.00,95.06
983.00,94.92
982.00,94.82
981.00,94.75
980.00,94.73
979.00,94.75
978.00,94.81
977.00,94.90
976.00,95.01
975.00,95.11
974.00,95.19
973.00,95.22
972.00,95.19
971.00,95.11
970.00,94.96
969.00,94.78
968.00,94.57
967.00,94.38
966.00,94.22
965.00,94.12
964.00,94.09
963.00,94.14
962.00,94.27
961.00,94.45
960.00,94.67
959.00,94.90
958.00,95.12
957.00,95.31
956.00,95.46
955.00,95.57
954.00,95.64
953.00,95.68
952.00,95.69
951.00,95.68
950.00,95.64
949.00,95.58
948.00,95.51
947.00,95.43
946.00,95.34
945.00,95.26
944.00,95.20
943.00,95.18
942.00,95.20
941.00,95.26
940.00,95.35
939.00,95.46
938.00,95.59
937.00,95.73
936.00,95.88
935.00,96.04
934.00,96.18
933.00,96.30
932.00,96.40
931.00,96.49
930.00,96.56
929.00,96.60
928.00,96.62
927.00,96.61
926.00,96.59
925.00,96.56
924.00,96.50
923.00,96.44
922.00,96.35
921.00,96.25
920.00,96.12
919.00,95.97
918.00,95.76
917.00,95.49
916.00,95.15
915.00,94.73
914.00,94.23
913.00,93.67
912.00,93.06
911.00,92.43
910.00,91.82
909.00,91.27
908.00,90.83
907.00,90.57
906.00,90.50
905.00,90.63
904.00,90.94
903.00,91.39
902.00,91.95
901.00,92.57
900.00,93.20
899.00,93.80
898.00,94.34
897.00,94.79
896.00,95.16
895.00,95.45
894.00,95.68
893.00,95.87
892.00,96.02
891.00,96.15
890.00,96.27
889.00,96.37
888.00,96.46
887.00,96.55
886.00,96.63
885.00,96.71
884.00,96.78
883.00,96.85
882.00,96.91
881.00,96.96
880.00,97.02
879.00,97.08
878.00,97.12
877.00,97.16
876.00,97.20
875.00,97.24
874.00,97.27
873.00,97.30
872.00,97.32
871.00,97.34
870.00,97.36
869.00,97.39
868.00,97.41
867.00,97.44
866.00,97.46
865.00,97.47
864.00,97.48
863.00,97.48
862.00,97.49
861.00,97.49
860.00,97.50
859.00,97.50
858.00,97.49
857.00,97.47
856.00,97.44
855.00,97.39
854.00,97.32
853.00,97.22
852.00,97.07
851.00,96.89
850.00,96.67
849.00,96.42
848.00,96.15
847.00,95.87
846.00,95.60
845.00,95.35
844.00,95.14
843.00,95.00
842.00,94.92
841.00,94.90
840.00,94.96
839.00,95.10
838.00,95.33
837.00,95.61
836.00,95.94
835.00,96.27
834.00,96.58
833.00,96.85
832.00,97.07
831.00,97.25
830.00,97.39
829.00,97.49
828.00,97.57
827.00,97.64
826.00,97.69
825.00,97.74
824.00,97.77
823.00,97.80
822.00,97.82
821.00,97.84
820.00,97.86
819.00,97.88
818.00,97.89
817.00,97.90
816.00,97.91
815.00,97.91
814.00,97.90
813.00,97.89
812.00,97.87
811.00,97.86
810.00,97.85
809.00,97.85
808.00,97.85
807.00,97.84
806.00,97.83
805.00,97.82
804.00,97.80
803.00,97.77
802.00,97.72
801.00,97.64
800.00,97.55
799.00,97.45
798.00,97.34
797.00,97.20
796.00,97.06
795.00,96.90
794.00,96.74
793.00,96.55
792.00,96.34
791.00,96.11
790.00,95.85
789.00,95.58
788.00,95.29
787.00,95.00
786.00,94.69
785.00,94.37
784.00,94.00
783.00,93.60
782.00,93.14
781.00,92.62
780.00,92.03
779.00,91.35
778.00,90.59
777.00,89.74
776.00,88.81
775.00,87.81
774.00,86.75
773.00,85.60
772.00,84.36
771.00,83.05
770.00,81.70
769.00,80.33
768.00,78.96
767.00,77.64
766.00,76.37
765.00,75.15
764.00,73.92
763.00,72.70
762.00,71.47
761.00,70.23
760.00,69.02
759.00,67.90
758.00,66.95
757.00,66.20
756.00,65.67
755.00,65.38
754.00,65.28
753.00,65.27
752.00,65.26
751.00,65.22
750.00,65.15
749.00,65.07
748.00,65.09
747.00,65.36
746.00,66.04
745.00,67.15
744.00,68.68
743.00,70.52
742.00,72.54
741.00,74.57
740.00,76.53
739.00,78.40
738.00,80.19
737.00,81.91
736.00,83.59
735.00,85.26
734.00,86.90
733.00,88.45
732.00,89.86
731.00,91.09
730.00,92.12
729.00,92.96
728.00,93.63
727.00,94.16
726.00,94.59
725.00,94.93
724.00,95.19
723.00,95.38
722.00,95.50
721.00,95.57
720.00,95.57
719.00,95.53
718.00,95.42
717.00,95.22
716.00,94.93
715.00,94.51
714.00,93.91
713.00,93.05
712.00,91.85
711.00,90.23
710.00,88.11
709.00,85.40
708.00,82.09
707.00,78.20
706.00,73.80
705.00,68.93
704.00,63.69
703.00,58.21
702.00,52.63
701.00,47.03
700.00,41.52
699.00,36.24
698.00,31.40
697.00,27.24
696.00,24.15
695.00,22.61
694.00,22.98
693.00,25.32
692.00,29.38
691.00,34.61
690.00,40.34
689.00,45.90
688.00,50.87
687.00,55.13
686.00,58.70
685.00,61.67
684.00,64.14
683.00,66.23
682.00,68.04
681.00,69.60
680.00,70.96
679.00,72.17
678.00,73.27
677.00,74.26
676.00,75.10
675.00,75.85
674.00,76.51
673.00,77.07
672.00,77.54
671.00,77.95
670.00,78.41
669.00,79.00
668.00,79.70
667.00,80.27
666.00,80.68
665.00,81.07
664.00,81.50
663.00,81.99
662.00,82.53
661.00,83.05
660.00,83.55
659.00,84.04
658.00,84.52
657.00,84.99
656.00,85.43
655.00,85.84
654.00,86.22
653.00,86.57
652.00,86.90
651.00,87.20
650.00,87.47
