Created as New Dataset,PS Granule GF
cm-1,%T
4000.00,99.88
3999.00,99.88
3998.00,99.88
3997.00,99.89
3996.00,99.89
3995.00,99.89
3994.00,99.89
3993.00,99.89
3992.00,99.89
3991.00,99.89
3990.00,99.90
3989.00,99.90
3988.00,99.90
3987.00,99.89
3986.00,99.89
3985.00,99.89
3984.00,99.89
3983.00,99.89
3982.00,99.89
3981.00,99.89
3980.00,99.88
3979.00,99.88
3978.00,99.88
3977.00,99.88
3976.00,99.88
3975.00,99.88
3974.00,99.88
3973.00,99.89
3972.00,99.89
3971.00,99.89
3970.00,99.89
3969.00,99.89
3968.00,99.89
3967.00,99.89
3966.00,99.89
3965.00,99.89
3964.00,99.89
3963.00,99.89
3962.00,99.89
3961.00,99.89
3960.00,99.88
3959.00,99.88
3958.00,99.88
3957.00,99.88
3956.00,99.88
3955.00,99.88
3954.00,99.88
3953.00,99.88
3952.00,99.88
3951.00,99.88
3950.00,99.88
3949.00,99.88
3948.00,99.88
3947.00,99.88
3946.00,99.88
3945.00,99.88
3944.00,99.88
3943.00,99.88
3942.00,99.88
3941.00,99.88
3940.00,99.88
3939.00,99.88
3938.00,99.88
3937.00,99.88
3936.00,99.88
3935.00,99.88
3934.00,99.88
3933.00,99.88
3932.00,99.88
3931.00,99.88
3930.00,99.88
3929.00,99.88
3928.00,99.88
3927.00,99.88
3926.00,99.88
3925.00,99.87
3924.00,99.87
3923.00,99.88
3922.00,99.87
3921.00,99.87
3920.00,99.88
3919.00,99.88
3918.00,99.88
3917.00,99.88
3916.00,99.88
3915.00,99.88
3914.00,99.88
3913.00,99.88
3912.00,99.88
3911.00,99.87
3910.00,99.88
3909.00,99.88
3908.00,99.88
3907.00,99.88
3906.00,99.87
3905.00,99.87
3904.00,99.87
3903.00,99.87
3902.00,99.87
3901.00,99.87
3900.00,99.87
3899.00,99.87
3898.00,99.87
3897.00,99.87
3896.00,99.87
3895.00,99.87
3894.00,99.86
3893.00,99.86
3892.00,99.86
3891.00,99.86
3890.00,99.86
3889.00,99.86
3888.00,99.86
3887.00,99.87
3886.00,99.87
3885.00,99.87
3884.00,99.87
3883.00,99.87
3882.00,99.87
3881.00,99.86
3880.00,99.86
3879.00,99.86
3878.00,99.86
3877.00,99.86
3876.00,99.86
3875.00,99.87
3874.00,99.87
3873.00,99.87
3872.00,99.86
3871.00,99.86
3870.00,99.87
3869.00,99.87
3868.00,99.87
3867.00,99.87
3866.00,99.86
3865.00,99.86
3864.00,99.86
3863.00,99.86
3862.00,99.86
3861.00,99.86
3860.00,99.86
3859.00,99.86
3858.00,99.86
3857.00,99.86
3856.00,99.86
3855.00,99.86
3854.00,99.86
3853.00,99.85
3852.00,99.85
3851.00,99.85
3850.00,99.85
3849.00,99.85
3848.00,99.85
3847.00,99.85
3846.00,99.85
3845.00,99.85
3844.00,99.85
3843.00,99.85
3842.00,99.85
3841.00,99.85
3840.00,99.85
3839.00,99.85
3838.00,99.85
3837.00,99.85
3836.00,99.84
3835.00,99.84
3834.00,99.84
3833.00,99.85
3832.00,99.85
3831.00,99.85
3830.00,99.85
3829.00,99.85
3828.00,99.85
3827.00,99.85
3826.00,99.85
3825.00,99.85
3824.00,99.85
3823.00,99.85
3822.00,99.85
3821.00,99.85
3820.00,99.85
3819.00,99.85
3818.00,99.85
3817.00,99.85
3816.00,99.85
3815.00,99.85
3814.00,99.85
3813.00,99.85
3812.00,99.85
3811.00,99.85
3810.00,99.86
3809.00,99.86
3808.00,99.85
3807.00,99.85
3806.00,99.85
3805.00,99.85
3804.00,99.85
3803.00,99.85
3802.00,99.85
3801.00,99.84
3800.00,99.84
3799.00,99.84
3798.00,99.84
3797.00,99.85
3796.00,99.85
3795.00,99.85
3794.00,99.84
3793.00,99.84
3792.00,99.84
3791.00,99.84
3790.00,99.84
3789.00,99.84
3788.00,99.84
3787.00,99.84
3786.00,99.84
3785.00,99.84
3784.00,99.84
3783.00,99.84
3782.00,99.84
3781.00,99.84
3780.00,99.84
3779.00,99.84
3778.00,99.84
3777.00,99.84
3776.00,99.84
3775.00,99.84
3774.00,99.84
3773.00,99.84
3772.00,99.84
3771.00,99.83
3770.00,99.83
3769.00,99.83
3768.00,99.83
3767.00,99.83
3766.00,99.83
3765.00,99.83
3764.00,99.83
3763.00,99.83
3762.00,99.83
3761.00,99.83
3760.00,99.83
3759.00,99.83
3758.00,99.83
3757.00,99.83
3756.00,99.83
3755.00,99.83
3754.00,99.83
3753.00,99.83
3752.00,99.83
3751.00,99.83
3750.00,99.82
3749.00,99.82
3748.00,99.82
3747.00,99.81
3746.00,99.82
3745.00,99.82
3744.00,99.82
3743.00,99.82
3742.00,99.82
3741.00,99.82
3740.00,99.82
3739.00,99.82
3738.00,99.82
3737.00,99.82
3736.00,99.81
3735.00,99.80
3734.00,99.80
3733.00,99.81
3732.00,99.82
3731.00,99.83
3730.00,99.83
3729.00,99.83
3728.00,99.83
3727.00,99.83
3726.00,99.83
3725.00,99.83
3724.00,99.83
3723.00,99.83
3722.00,99.83
3721.00,99.83
3720.00,99.83
3719.00,99.83
3718.00,99.83
3717.00,99.83
3716.00,99.83
3715.00,99.83
3714.00,99.83
3713.00,99.83
3712.00,99.83
3711.00,99.82
3710.00,99.83
3709.00,99.83
3708.00,99.83
3707.00,99.84
3706.00,99.83
3705.00,99.83
3704.00,99.83
3703.00,99.83
3702.00,99.83
3701.00,99.83
3700.00,99.83
3699.00,99.84
3698.00,99.84
3697.00,99.84
3696.00,99.84
3695.00,99.84
3694.00,99.84
3693.00,99.84
3692.00,99.84
3691.00,99.84
3690.00,99.84
3689.00,99.83
3688.00,99.83
3687.00,99.83
3686.00,99.83
3685.00,99.84
3684.00,99.84
3683.00,99.84
3682.00,99.84
3681.00,99.84
3680.00,99.84
3679.00,99.84
3678.00,99.85
3677.00,99.85
3676.00,99.85
3675.00,99.84
3674.00,99.84
3673.00,99.83
3672.00,99.83
3671.00,99.83
3670.00,99.83
3669.00,99.84
3668.00,99.84
3667.00,99.83
3666.00,99.84
3665.00,99.84
3664.00,99.84
3663.00,99.84
3662.00,99.84
3661.00,99.84
3660.00,99.84
3659.00,99.84
3658.00,99.84
3657.00,99.84
3656.00,99.84
3655.00,99.84
3654.00,99.84
3653.00,99.83
3652.00,99.83
3651.00,99.84
3650.00,99.84
3649.00,99.84
3648.00,99.83
3647.00,99.82
3646.00,99.82
3645.00,99.82
3644.00,99.83
3643.00,99.83
3642.00,99.84
3641.00,99.84
3640.00,99.84
3639.00,99.84
3638.00,99.84
3637.00,99.84
3636.00,99.84
3635.00,99.84
3634.00,99.84
3633.00,99.84
3632.00,99.84
3631.00,99.84
3630.00,99.85
3629.00,99.85
3628.00,99.84
3627.00,99.84
3626.00,99.83
3625.00,99.83
3624.00,99.84
3623.00,99.84
3622.00,99.84
3621.00,99.85
3620.00,99.85
3619.00,99.85
3618.00,99.85
3617.00,99.85
3616.00,99.85
3615.00,99.85
3614.00,99.84
3613.00,99.84
3612.00,99.84
3611.00,99.84
3610.00,99.84
3609.00,99.84
3608.00,99.84
3607.00,99.84
3606.00,99.84
3605.00,99.84
3604.00,99.85
3603.00,99.86
3602.00,99.87
3601.00,99.87
3600.00,99.87
3599.00,99.86
3598.00,99.85
3597.00,99.85
3596.00,99.85
3595.00,99.85
3594.00,99.85
3593.00,99.86
3592.00,99.85
3591.00,99.85
3590.00,99.85
3589.00,99.85
3588.00,99.85
3587.00,99.86
3586.00,99.86
3585.00,99.86
3584.00,99.86
3583.00,99.86
3582.00,99.86
3581.00,99.86
3580.00,99.86
3579.00,99.86
3578.00,99.86
3577.00,99.86
3576.00,99.86
3575.00,99.86
3574.00,99.85
3573.00,99.85
3572.00,99.85
3571.00,99.85
3570.00,99.86
3569.00,99.86
3568.00,99.86
3567.00,99.85
3566.00,99.85
3565.00,99.85
3564.00,99.85
3563.00,99.86
3562.00,99.86
3561.00,99.86
3560.00,99.86
3559.00,99.86
3558.00,99.86
3557.00,99.86
3556.00,99.86
3555.00,99.86
3554.00,99.86
3553.00,99.87
3552.00,99.87
3551.00,99.87
3550.00,99.87
3549.00,99.86
3548.00,99.86
3547.00,99.86
3546.00,99.86
3545.00,99.86
3544.00,99.86
3543.00,99.86
3542.00,99.86
3541.00,99.86
3540.00,99.86
3539.00,99.86
3538.00,99.86
3537.00,99.86
3536.00,99.86
3535.00,99.86
3534.00,99.86
3533.00,99.86
3532.00,99.86
3531.00,99.86
3530.00,99.86
3529.00,99.86
3528.00,99.86
3527.00,99.86
3526.00,99.86
3525.00,99.85
3524.00,99.85
3523.00,99.85
3522.00,99.85
3521.00,99.85
3520.00,99.85
3519.00,99.86
3518.00,99.86
3517.00,99.87
3516.00,99.87
3515.00,99.87
3514.00,99.86
3513.00,99.86
3512.00,99.86
3511.00,99.86
3510.00,99.86
3509.00,99.86
3508.00,99.86
3507.00,99.86
3506.00,99.86
3505.00,99.86
3504.00,99.86
3503.00,99.87
3502.00,99.87
3501.00,99.87
3500.00,99.87
3499.00,99.87
3498.00,99.87
3497.00,99.87
3496.00,99.87
3495.00,99.86
3494.00,99.86
3493.00,99.86
3492.00,99.86
3491.00,99.86
3490.00,99.87
3489.00,99.87
3488.00,99.87
3487.00,99.87
3486.00,99.86
3485.00,99.86
3484.00,99.87
3483.00,99.87
3482.00,99.87
3481.00,99.87
3480.00,99.87
3479.00,99.86
3478.00,99.86
3477.00,99.86
3476.00,99.86
3475.00,99.86
3474.00,99.87
3473.00,99.87
3472.00,99.88
3471.00,99.88
3470.00,99.87
3469.00,99.87
3468.00,99.87
3467.00,99.87
3466.00,99.87
3465.00,99.87
3464.00,99.87
3463.00,99.87
3462.00,99.87
3461.00,99.87
3460.00,99.87
3459.00,99.87
3458.00,99.86
3457.00,99.86
3456.00,99.86
3455.00,99.87
3454.00,99.87
3453.00,99.87
3452.00,99.87
3451.00,99.87
3450.00,99.87
3449.00,99.87
3448.00,99.87
3447.00,99.87
3446.00,99.87
3445.00,99.87
3444.00,99.87
3443.00,99.87
3442.00,99.87
3441.00,99.88
3440.00,99.88
3439.00,99.87
3438.00,99.87
3437.00,99.87
3436.00,99.87
3435.00,99.87
3434.00,99.88
3433.00,99.88
3432.00,99.88
3431.00,99.88
3430.00,99.87
3429.00,99.87
3428.00,99.87
3427.00,99.87
3426.00,99.87
3425.00,99.87
3424.00,99.87
3423.00,99.87
3422.00,99.87
3421.00,99.87
3420.00,99.87
3419.00,99.87
3418.00,99.87
3417.00,99.87
3416.00,99.87
3415.00,99.87
3414.00,99.87
3413.00,99.87
3412.00,99.87
3411.00,99.87
3410.00,99.87
3409.00,99.87
3408.00,99.87
3407.00,99.86
3406.00,99.86
3405.00,99.87
3404.00,99.87
3403.00,99.87
3402.00,99.87
3401.00,99.87
3400.00,99.87
3399.00,99.87
3398.00,99.87
3397.00,99.87
3396.00,99.88
3395.00,99.88
3394.00,99.88
3393.00,99.88
3392.00,99.88
3391.00,99.88
3390.00,99.88
3389.00,99.87
3388.00,99.87
3387.00,99.87
3386.00,99.87
3385.00,99.87
3384.00,99.87
3383.00,99.87
3382.00,99.88
3381.00,99.88
3380.00,99.88
3379.00,99.88
3378.00,99.87
3377.00,99.87
3376.00,99.88
3375.00,99.88
3374.00,99.88
3373.00,99.88
3372.00,99.88
3371.00,99.88
3370.00,99.87
3369.00,99.87
3368.00,99.86
3367.00,99.86
3366.00,99.86
3365.00,99.87
3364.00,99.87
3363.00,99.87
3362.00,99.88
3361.00,99.87
3360.00,99.87
3359.00,99.87
3358.00,99.87
3357.00,99.88
3356.00,99.88
3355.00,99.88
3354.00,99.88
3353.00,99.88
3352.00,99.88
3351.00,99.88
3350.00,99.87
3349.00,99.87
3348.00,99.87
3347.00,99.87
3346.00,99.87
3345.00,99.87
3344.00,99.87
3343.00,99.88
3342.00,99.88
3341.00,99.88
3340.00,99.87
3339.00,99.87
3338.00,99.86
3337.00,99.86
3336.00,99.87
3335.00,99.87
3334.00,99.87
3333.00,99.87
3332.00,99.87
3331.00,99.87
3330.00,99.87
3329.00,99.87
3328.00,99.87
3327.00,99.87
3326.00,99.87
3325.00,99.87
3324.00,99.87
3323.00,99.87
3322.00,99.87
3321.00,99.87
3320.00,99.87
3319.00,99.87
3318.00,99.87
3317.00,99.87
3316.00,99.87
3315.00,99.87
3314.00,99.87
3313.00,99.87
3312.00,99.87
3311.00,99.87
3310.00,99.87
3309.00,99.87
3308.00,99.87
3307.00,99.87
3306.00,99.87
3305.00,99.87
3304.00,99.87
3303.00,99.87
3302.00,99.88
3301.00,99.88
3300.00,99.87
3299.00,99.87
3298.00,99.87
3297.00,99.87
3296.00,99.87
3295.00,99.87
3294.00,99.87
3293.00,99.86
3292.00,99.86
3291.00,99.86
3290.00,99.87
3289.00,99.87
3288.00,99.87
3287.00,99.87
3286.00,99.87
3285.00,99.87
3284.00,99.87
3283.00,99.87
3282.00,99.87
3281.00,99.87
3280.00,99.87
3279.00,99.87
3278.00,99.87
3277.00,99.87
3276.00,99.87
3275.00,99.87
3274.00,99.87
3273.00,99.87
3272.00,99.86
3271.00,99.86
3270.00,99.86
3269.00,99.86
3268.00,99.86
3267.00,99.86
3266.00,99.86
3265.00,99.87
3264.00,99.87
3263.00,99.87
3262.00,99.87
3261.00,99.87
3260.00,99.87
3259.00,99.87
3258.00,99.87
3257.00,99.87
3256.00,99.87
3255.00,99.87
3254.00,99.87
3253.00,99.87
3252.00,99.87
3251.00,99.87
3250.00,99.87
3249.00,99.87
3248.00,99.87
3247.00,99.86
3246.00,99.86
3245.00,99.86
3244.00,99.86
3243.00,99.87
3242.00,99.87
3241.00,99.87
3240.00,99.87
3239.00,99.87
3238.00,99.87
3237.00,99.87
3236.00,99.87
3235.00,99.87
3234.00,99.87
3233.00,99.87
3232.00,99.87
3231.00,99.87
3230.00,99.86
3229.00,99.86
3228.00,99.86
3227.00,99.86
3226.00,99.86
3225.00,99.87
3224.00,99.87
3223.00,99.87
3222.00,99.87
3221.00,99.87
3220.00,99.87
3219.00,99.87
3218.00,99.87
3217.00,99.87
3216.00,99.86
3215.00,99.86
3214.00,99.86
3213.00,99.86
3212.00,99.86
3211.00,99.86
3210.00,99.86
3209.00,99.86
3208.00,99.86
3207.00,99.86
3206.00,99.86
3205.00,99.86
3204.00,99.86
3203.00,99.86
3202.00,99.86
3201.00,99.86
3200.00,99.86
3199.00,99.86
3198.00,99.86
3197.00,99.86
3196.00,99.86
3195.00,99.86
3194.00,99.86
3193.00,99.86
3192.00,99.86
3191.00,99.86
3190.00,99.86
3189.00,99.86
3188.00,99.87
3187.00,99.87
3186.00,99.87
3185.00,99.87
3184.00,99.86
3183.00,99.86
3182.00,99.86
3181.00,99.86
3180.00,99.86
3179.00,99.86
3178.00,99.87
3177.00,99.87
3176.00,99.87
3175.00,99.87
3174.00,99.87
3173.00,99.87
3172.00,99.86
3171.00,99.86
3170.00,99.86
3169.00,99.85
3168.00,99.85
3167.00,99.85
3166.00,99.85
3165.00,99.86
3164.00,99.86
3163.00,99.86
3162.00,99.86
3161.00,99.86
3160.00,99.86
3159.00,99.86
3158.00,99.86
3157.00,99.86
3156.00,99.86
3155.00,99.86
3154.00,99.86
3153.00,99.86
3152.00,99.86
3151.00,99.86
3150.00,99.86
3149.00,99.86
3148.00,99.86
3147.00,99.86
3146.00,99.87
3145.00,99.87
3144.00,99.87
3143.00,99.87
3142.00,99.87
3141.00,99.87
3140.00,99.86
3139.00,99.86
3138.00,99.86
3137.00,99.86
3136.00,99.86
3135.00,99.86
3134.00,99.86
3133.00,99.86
3132.00,99.86
3131.00,99.86
3130.00,99.86
3129.00,99.86
3128.00,99.86
3127.00,99.85
3126.00,99.85
3125.00,99.85
3124.00,99.85
3123.00,99.85
3122.00,99.86
3121.00,99.85
3120.00,99.85
3119.00,99.85
3118.00,99.84
3117.00,99.84
3116.00,99.83
3115.00,99.83
3114.00,99.82
3113.00,99.82
3112.00,99.81
3111.00,99.80
3110.00,99.79
3109.00,99.78
3108.00,99.77
3107.00,99.77
3106.00,99.77
3105.00,99.76
3104.00,99.76
3103.00,99.76
3102.00,99.75
3101.00,99.76
3100.00,99.76
3099.00,99.76
3098.00,99.76
3097.00,99.76
3096.00,99.76
3095.00,99.75
3094.00,99.74
3093.00,99.72
3092.00,99.70
3091.00,99.68
3090.00,99.66
3089.00,99.63
3088.00,99.61
3087.00,99.59
3086.00,99.57
3085.00,99.55
3084.00,99.55
3083.00,99.55
3082.00,99.55
3081.00,99.56
3080.00,99.57
3079.00,99.59
3078.00,99.60
3077.00,99.61
3076.00,99.62
3075.00,99.62
3074.00,99.62
3073.00,99.62
3072.00,99.61
3071.00,99.60
3070.00,99.58
3069.00,99.56
3068.00,99.54
3067.00,99.51
3066.00,99.49
3065.00,99.46
3064.00,99.43
3063.00,99.41
3062.00,99.40
3061.00,99.40
3060.00,99.40
3059.00,99.41
3058.00,99.42
3057.00,99.45
3056.00,99.47
3055.00,99.50
3054.00,99.53
3053.00,99.55
3052.00,99.56
3051.00,99.58
3050.00,99.59
3049.00,99.60
3048.00,99.61
3047.00,99.61
3046.00,99.61
3045.00,99.61
3044.00,99.61
3043.00,99.60
3042.00,99.58
3041.00,99.57
3040.00,99.54
3039.00,99.51
3038.00,99.48
3037.00,99.44
3036.00,99.40
3035.00,99.35
3034.00,99.30
3033.00,99.24
3032.00,99.18
3031.00,99.12
3030.00,99.06
3029.00,99.01
3028.00,98.97
3027.00,98.94
3026.00,98.94
3025.00,98.96
3024.00,99.00
3023.00,99.05
3022.00,99.12
3021.00,99.20
3020.00,99.27
3019.00,99.34
3018.00,99.40
3017.00,99.45
3016.00,99.49
3015.00,99.52
3014.00,99.55
3013.00,99.58
3012.00,99.59
3011.00,99.60
3010.00,99.60
3009.00,99.60
3008.00,99.60
3007.00,99.59
3006.00,99.59
3005.00,99.58
3004.00,99.58
3003.00,99.58
3002.00,99.59
3001.00,99.59
3000.00,99.61
2999.00,99.62
2998.00,99.64
2997.00,99.66
2996.00,99.68
2995.00,99.70
2994.00,99.71
2993.00,99.72
2992.00,99.72
2991.00,99.73
2990.00,99.74
2989.00,99.74
2988.00,99.74
2987.00,99.74
2986.00,99.74
2985.00,99.74
2984.00,99.74
2983.00,99.74
2982.00,99.74
2981.00,99.74
2980.00,99.74
2979.00,99.74
2978.00,99.74
2977.00,99.74
2976.00,99.73
2975.00,99.73
2974.00,99.73
2973.00,99.73
2972.00,99.73
2971.00,99.72
2970.00,99.72
2969.00,99.72
2968.00,99.71
2967.00,99.71
2966.00,99.70
2965.00,99.70
2964.00,99.69
2963.00,99.68
2962.00,99.67
2961.00,99.66
2960.00,99.65
2959.00,99.64
2958.00,99.63
2957.00,99.61
2956.00,99.60
2955.00,99.59
2954.00,99.57
2953.00,99.56
2952.00,99.54
2951.00,99.52
2950.00,99.50
2949.00,99.48
2948.00,99.45
2947.00,99.42
2946.00,99.40
2945.00,99.37
2944.00,99.35
2943.00,99.32
2942.00,99.29
2941.00,99.25
2940.00,99.22
2939.00,99.18
2938.00,99.14
2937.00,99.10
2936.00,99.06
2935.00,99.03
2934.00,98.98
2933.00,98.94
2932.00,98.91
2931.00,98.87
2930.00,98.83
2929.00,98.80
2928.00,98.76
2927.00,98.74
2926.00,98.71
2925.00,98.69
2924.00,98.68
2923.00,98.67
2922.00,98.67
2921.00,98.66
2920.00,98.67
2919.00,98.67
2918.00,98.69
2917.00,98.70
2916.00,98.73
2915.00,98.75
2914.00,98.77
2913.00,98.80
2912.00,98.83
2911.00,98.86
2910.00,98.89
2909.00,98.92
2908.00,98.95
2907.00,98.97
2906.00,99.00
2905.00,99.03
2904.00,99.06
2903.00,99.09
2902.00,99.12
2901.00,99.15
2900.00,99.18
2899.00,99.20
2898.00,99.22
2897.00,99.25
2896.00,99.27
2895.00,99.29
2894.00,99.31
2893.00,99.33
2892.00,99.34
2891.00,99.36
2890.00,99.37
2889.00,99.38
2888.00,99.39
2887.00,99.40
2886.00,99.41
2885.00,99.43
2884.00,99.44
2883.00,99.45
2882.00,99.45
2881.00,99.46
2880.00,99.47
2879.00,99.47
2878.00,99.48
2877.00,99.49
2876.00,99.49
2875.00,99.50
2874.00,99.51
2873.00,99.52
2872.00,99.52
2871.00,99.52
2870.00,99.52
2869.00,99.52
2868.00,99.52
2867.00,99.52
2866.00,99.52
2865.00,99.51
2864.00,99.50
2863.00,99.48
2862.00,99.46
2861.00,99.45
2860.00,99.43
2859.00,99.41
2858.00,99.39
2857.00,99.37
2856.00,99.35
2855.00,99.33
2854.00,99.31
2853.00,99.30
2852.00,99.29
2851.00,99.28
2850.00,99.28
2849.00,99.29
2848.00,99.31
2847.00,99.32
2846.00,99.35
2845.00,99.37
2844.00,99.39
2843.00,99.42
2842.00,99.44
2841.00,99.47
2840.00,99.50
2839.00,99.53
2838.00,99.56
2837.00,99.58
2836.00,99.60
2835.00,99.62
2834.00,99.64
2833.00,99.65
2832.00,99.66
2831.00,99.68
2830.00,99.68
2829.00,99.69
2828.00,99.69
2827.00,99.70
2826.00,99.70
2825.00,99.71
2824.00,99.71
2823.00,99.72
2822.00,99.72
2821.00,99.72
2820.00,99.72
2819.00,99.72
2818.00,99.72
2817.00,99.73
2816.00,99.73
2815.00,99.73
2814.00,99.73
2813.00,99.72
2812.00,99.72
2811.00,99.72
2810.00,99.72
2809.00,99.73
2808.00,99.73
2807.00,99.73
2806.00,99.74
2805.00,99.74
2804.00,99.74
2803.00,99.74
2802.00,99.74
2801.00,99.74
2800.00,99.74
2799.00,99.74
2798.00,99.75
2797.00,99.75
2796.00,99.75
2795.00,99.75
2794.00,99.75
2793.00,99.75
2792.00,99.75
2791.00,99.75
2790.00,99.76
2789.00,99.76
2788.00,99.76
2787.00,99.76
2786.00,99.76
2785.00,99.76
2784.00,99.76
2783.00,99.76
2782.00,99.76
2781.00,99.76
2780.00,99.76
2779.00,99.76
2778.00,99.77
2777.00,99.77
2776.00,99.76
2775.00,99.76
2774.00,99.77
2773.00,99.77
2772.00,99.77
2771.00,99.77
2770.00,99.77
2769.00,99.77
2768.00,99.77
2767.00,99.77
2766.00,99.77
2765.00,99.77
2764.00,99.77
2763.00,99.77
2762.00,99.78
2761.00,99.78
2760.00,99.78
2759.00,99.78
2758.00,99.78
2757.00,99.78
2756.00,99.78
2755.00,99.78
2754.00,99.78
2753.00,99.78
2752.00,99.78
2751.00,99.78
2750.00,99.78
2749.00,99.78
2748.00,99.78
2747.00,99.78
2746.00,99.78
2745.00,99.78
2744.00,99.78
2743.00,99.78
2742.00,99.78
2741.00,99.78
2740.00,99.78
2739.00,99.78
2738.00,99.78
2737.00,99.78
2736.00,99.78
2735.00,99.78
2734.00,99.79
2733.00,99.78
2732.00,99.78
2731.00,99.78
2730.00,99.78
2729.00,99.78
2728.00,99.78
2727.00,99.78
2726.00,99.78
2725.00,99.78
2724.00,99.78
2723.00,99.78
2722.00,99.78
2721.00,99.78
2720.00,99.79
2719.00,99.79
2718.00,99.78
2717.00,99.78
2716.00,99.78
2715.00,99.78
2714.00,99.78
2713.00,99.79
2712.00,99.79
2711.00,99.79
2710.00,99.79
2709.00,99.79
2708.00,99.79
2707.00,99.79
2706.00,99.79
2705.00,99.78
2704.00,99.78
2703.00,99.78
2702.00,99.78
2701.00,99.79
2700.00,99.79
2699.00,99.79
2698.00,99.79
2697.00,99.78
2696.00,99.78
2695.00,99.78
2694.00,99.78
2693.00,99.78
2692.00,99.78
2691.00,99.78
2690.00,99.78
2689.00,99.78
2688.00,99.78
2687.00,99.78
2686.00,99.78
2685.00,99.78
2684.00,99.78
2683.00,99.79
2682.00,99.79
2681.00,99.79
2680.00,99.79
2679.00,99.79
2678.00,99.79
2677.00,99.79
2676.00,99.79
2675.00,99.79
2674.00,99.79
2673.00,99.79
2672.00,99.79
2671.00,99.79
2670.00,99.78
2669.00,99.78
2668.00,99.78
2667.00,99.78
2666.00,99.78
2665.00,99.78
2664.00,99.78
2663.00,99.77
2662.00,99.77
2661.00,99.76
2660.00,99.76
2659.00,99.75
2658.00,99.74
2657.00,99.74
2656.00,99.74
2655.00,99.74
2654.00,99.74
2653.00,99.74
2652.00,99.73
2651.00,99.73
2650.00,99.73
2649.00,99.73
2648.00,99.73
2647.00,99.73
2646.00,99.72
2645.00,99.72
2644.00,99.72
2643.00,99.72
2642.00,99.72
2641.00,99.72
2640.00,99.72
2639.00,99.72
2638.00,99.72
2637.00,99.72
2636.00,99.72
2635.00,99.72
2634.00,99.72
2633.00,99.72
2632.00,99.72
2631.00,99.72
2630.00,99.72
2629.00,99.72
2628.00,99.72
2627.00,99.72
2626.00,99.72
2625.00,99.72
2624.00,99.72
2623.00,99.72
2622.00,99.72
2621.00,99.72
2620.00,99.73
2619.00,99.73
2618.00,99.73
2617.00,99.73
2616.00,99.73
2615.00,99.73
2614.00,99.73
2613.00,99.73
2612.00,99.73
2611.00,99.73
2610.00,99.73
2609.00,99.74
2608.00,99.74
2607.00,99.74
2606.00,99.74
2605.00,99.74
2604.00,99.74
2603.00,99.74
2602.00,99.74
2601.00,99.73
2600.00,99.73
2599.00,99.74
2598.00,99.74
2597.00,99.74
2596.00,99.74
2595.00,99.74
2594.00,99.74
2593.00,99.74
2592.00,99.74
2591.00,99.74
2590.00,99.75
2589.00,99.75
2588.00,99.75
2587.00,99.75
2586.00,99.75
2585.00,99.75
2584.00,99.75
2583.00,99.75
2582.00,99.75
2581.00,99.75
2580.00,99.75
2579.00,99.75
2578.00,99.76
2577.00,99.76
2576.00,99.76
2575.00,99.76
2574.00,99.76
2573.00,99.76
2572.00,99.76
2571.00,99.76
2570.00,99.76
2569.00,99.76
2568.00,99.76
2567.00,99.76
2566.00,99.76
2565.00,99.76
2564.00,99.76
2563.00,99.76
2562.00,99.77
2561.00,99.77
2560.00,99.77
2559.00,99.77
2558.00,99.77
2557.00,99.77
2556.00,99.77
2555.00,99.77
2554.00,99.77
2553.00,99.77
2552.00,99.77
2551.00,99.77
2550.00,99.77
2549.00,99.77
2548.00,99.77
2547.00,99.77
2546.00,99.77
2545.00,99.77
2544.00,99.77
2543.00,99.77
2542.00,99.77
2541.00,99.77
2540.00,99.77
2539.00,99.77
2538.00,99.78
2537.00,99.78
2536.00,99.78
2535.00,99.77
2534.00,99.77
2533.00,99.78
2532.00,99.78
2531.00,99.78
2530.00,99.77
2529.00,99.77
2528.00,99.77
2527.00,99.77
2526.00,99.77
2525.00,99.78
2524.00,99.78
2523.00,99.78
2522.00,99.78
2521.00,99.78
2520.00,99.78
2519.00,99.78
2518.00,99.78
2517.00,99.78
2516.00,99.78
2515.00,99.78
2514.00,99.78
2513.00,99.78
2512.00,99.78
2511.00,99.77
2510.00,99.77
2509.00,99.77
2508.00,99.78
2507.00,99.78
2506.00,99.78
2505.00,99.78
2504.00,99.78
2503.00,99.78
2502.00,99.78
2501.00,99.78
2500.00,99.78
2499.00,99.78
2498.00,99.79
2497.00,99.78
2496.00,99.78
2495.00,99.77
2494.00,99.77
2493.00,99.78
2492.00,99.78
2491.00,99.78
2490.00,99.78
2489.00,99.78
2488.00,99.78
2487.00,99.78
2486.00,99.78
2485.00,99.78
2484.00,99.78
2483.00,99.78
2482.00,99.78
2481.00,99.79
2480.00,99.79
2479.00,99.79
2478.00,99.79
2477.00,99.80
2476.00,99.80
2475.00,99.80
2474.00,99.80
2473.00,99.80
2472.00,99.80
2471.00,99.80
2470.00,99.79
2469.00,99.79
2468.00,99.79
2467.00,99.78
2466.00,99.78
2465.00,99.78
2464.00,99.78
2463.00,99.78
2462.00,99.78
2461.00,99.78
2460.00,99.78
2459.00,99.78
2458.00,99.78
2457.00,99.78
2456.00,99.77
2455.00,99.77
2454.00,99.77
2453.00,99.76
2452.00,99.76
2451.00,99.76
2450.00,99.76
2449.00,99.76
2448.00,99.77
2447.00,99.77
2446.00,99.77
2445.00,99.77
2444.00,99.78
2443.00,99.78
2442.00,99.78
2441.00,99.78
2440.00,99.78
2439.00,99.78
2438.00,99.79
2437.00,99.79
2436.00,99.79
2435.00,99.79
2434.00,99.78
2433.00,99.79
2432.00,99.79
2431.00,99.79
2430.00,99.79
2429.00,99.80
2428.00,99.79
2427.00,99.79
2426.00,99.79
2425.00,99.79
2424.00,99.79
2423.00,99.80
2422.00,99.80
2421.00,99.80
2420.00,99.80
2419.00,99.80
2418.00,99.80
2417.00,99.80
2416.00,99.80
2415.00,99.80
2414.00,99.80
2413.00,99.80
2412.00,99.80
2411.00,99.80
2410.00,99.80
2409.00,99.80
2408.00,99.80
2407.00,99.80
2406.00,99.80
2405.00,99.81
2404.00,99.81
2403.00,99.81
2402.00,99.82
2401.00,99.82
2400.00,99.82
2399.00,99.82
2398.00,99.82
2397.00,99.82
2396.00,99.82
2395.00,99.82
2394.00,99.82
2393.00,99.82
2392.00,99.82
2391.00,99.82
2390.00,99.82
2389.00,99.82
2388.00,99.83
2387.00,99.83
2386.00,99.83
2385.00,99.83
2384.00,99.82
2383.00,99.82
2382.00,99.83
2381.00,99.83
2380.00,99.83
2379.00,99.83
2378.00,99.83
2377.00,99.83
2376.00,99.83
2375.00,99.82
2374.00,99.82
2373.00,99.82
2372.00,99.82
2371.00,99.82
2370.00,99.82
2369.00,99.82
2368.00,99.83
2367.00,99.83
2366.00,99.83
2365.00,99.81
2364.00,99.79
2363.00,99.77
2362.00,99.77
2361.00,99.77
2360.00,99.78
2359.00,99.80
2358.00,99.80
2357.00,99.80
2356.00,99.80
2355.00,99.79
2354.00,99.79
2353.00,99.78
2352.00,99.78
2351.00,99.78
2350.00,99.78
2349.00,99.77
2348.00,99.77
2347.00,99.76
2346.00,99.76
2345.00,99.76
2344.00,99.76
2343.00,99.76
2342.00,99.76
2341.00,99.75
2340.00,99.74
2339.00,99.73
2338.00,99.73
2337.00,99.73
2336.00,99.73
2335.00,99.73
2334.00,99.73
2333.00,99.74
2332.00,99.74
2331.00,99.74
2330.00,99.74
2329.00,99.74
2328.00,99.72
2327.00,99.70
2326.00,99.66
2325.00,99.62
2324.00,99.58
2323.00,99.57
2322.00,99.58
2321.00,99.60
2320.00,99.62
2319.00,99.64
2318.00,99.65
2317.00,99.65
2316.00,99.65
2315.00,99.65
2314.00,99.66
2313.00,99.67
2312.00,99.67
2311.00,99.67
2310.00,99.67
2309.00,99.66
2308.00,99.66
2307.00,99.67
2306.00,99.67
2305.00,99.67
2304.00,99.68
2303.00,99.68
2302.00,99.68
2301.00,99.68
2300.00,99.67
2299.00,99.67
2298.00,99.67
2297.00,99.67
2296.00,99.67
2295.00,99.67
2294.00,99.67
2293.00,99.66
2292.00,99.65
2291.00,99.64
2290.00,99.63
2289.00,99.63
2288.00,99.62
2287.00,99.62
2286.00,99.62
2285.00,99.62
2284.00,99.62
2283.00,99.62
2282.00,99.63
2281.00,99.63
2280.00,99.64
2279.00,99.65
2278.00,99.65
2277.00,99.65
2276.00,99.65
2275.00,99.65
2274.00,99.66
2273.00,99.66
2272.00,99.66
2271.00,99.66
2270.00,99.66
2269.00,99.66
2268.00,99.66
2267.00,99.66
2266.00,99.67
2265.00,99.67
2264.00,99.68
2263.00,99.69
2262.00,99.69
2261.00,99.69
2260.00,99.68
2259.00,99.67
2258.00,99.66
2257.00,99.66
2256.00,99.66
2255.00,99.68
2254.00,99.69
2253.00,99.70
2252.00,99.71
2251.00,99.71
2250.00,99.70
2249.00,99.69
2248.00,99.68
2247.00,99.67
2246.00,99.67
2245.00,99.67
2244.00,99.67
2243.00,99.67
2242.00,99.66
2241.00,99.66
2240.00,99.66
2239.00,99.66
2238.00,99.67
2237.00,99.67
2236.00,99.67
2235.00,99.67
2234.00,99.67
2233.00,99.67
2232.00,99.67
2231.00,99.67
2230.00,99.66
2229.00,99.66
2228.00,99.66
2227.00,99.66
2226.00,99.66
2225.00,99.66
2224.00,99.66
2223.00,99.65
2222.00,99.65
2221.00,99.65
2220.00,99.66
2219.00,99.66
2218.00,99.67
2217.00,99.67
2216.00,99.67
2215.00,99.66
2214.00,99.65
2213.00,99.64
2212.00,99.63
2211.00,99.63
2210.00,99.64
2209.00,99.64
2208.00,99.65
2207.00,99.64
2206.00,99.64
2205.00,99.64
2204.00,99.64
2203.00,99.64
2202.00,99.64
2201.00,99.64
2200.00,99.64
2199.00,99.64
2198.00,99.64
2197.00,99.64
2196.00,99.64
2195.00,99.63
2194.00,99.62
2193.00,99.62
2192.00,99.63
2191.00,99.63
2190.00,99.64
2189.00,99.65
2188.00,99.65
2187.00,99.64
2186.00,99.62
2185.00,99.60
2184.00,99.59
2183.00,99.60
2182.00,99.62
2181.00,99.65
2180.00,99.66
2179.00,99.66
2178.00,99.64
2177.00,99.62
2176.00,99.62
2175.00,99.64
2174.00,99.66
2173.00,99.67
2172.00,99.66
2171.00,99.64
2170.00,99.61
2169.00,99.58
2168.00,99.56
2167.00,99.55
2166.00,99.53
2165.00,99.50
2164.00,99.47
2163.00,99.44
2162.00,99.43
2161.00,99.45
2160.00,99.53
2159.00,99.66
2158.00,99.81
2157.00,99.91
2156.00,99.95
2155.00,99.93
2154.00,99.89
2153.00,99.86
2152.00,99.84
2151.00,99.84
2150.00,99.84
2149.00,99.84
2148.00,99.84
2147.00,99.83
2146.00,99.83
2145.00,99.83
2144.00,99.83
2143.00,99.83
2142.00,99.83
2141.00,99.83
2140.00,99.82
2139.00,99.82
2138.00,99.82
2137.00,99.84
2136.00,99.87
2135.00,99.90
2134.00,99.92
2133.00,99.92
2132.00,99.92
2131.00,99.90
2130.00,99.88
2129.00,99.87
2128.00,99.86
2127.00,99.85
2126.00,99.84
2125.00,99.83
2124.00,99.82
2123.00,99.81
2122.00,99.80
2121.00,99.79
2120.00,99.79
2119.00,99.77
2118.00,99.76
2117.00,99.75
2116.00,99.73
2115.00,99.72
2114.00,99.71
2113.00,99.71
2112.00,99.70
2111.00,99.69
2110.00,99.69
2109.00,99.68
2108.00,99.69
2107.00,99.69
2106.00,99.69
2105.00,99.70
2104.00,99.70
2103.00,99.69
2102.00,99.69
2101.00,99.69
2100.00,99.69
2099.00,99.69
2098.00,99.69
2097.00,99.70
2096.00,99.72
2095.00,99.74
2094.00,99.75
2093.00,99.75
2092.00,99.75
2091.00,99.74
2090.00,99.72
2089.00,99.70
2088.00,99.69
2087.00,99.68
2086.00,99.68
2085.00,99.68
2084.00,99.68
2083.00,99.68
2082.00,99.68
2081.00,99.67
2080.00,99.67
2079.00,99.66
2078.00,99.66
2077.00,99.67
2076.00,99.68
2075.00,99.68
2074.00,99.68
2073.00,99.67
2072.00,99.66
2071.00,99.66
2070.00,99.67
2069.00,99.67
2068.00,99.68
2067.00,99.69
2066.00,99.68
2065.00,99.67
2064.00,99.67
2063.00,99.66
2062.00,99.66
2061.00,99.65
2060.00,99.65
2059.00,99.65
2058.00,99.65
2057.00,99.64
2056.00,99.63
2055.00,99.63
2054.00,99.63
2053.00,99.61
2052.00,99.58
2051.00,99.54
2050.00,99.52
2049.00,99.52
2048.00,99.54
2047.00,99.56
2046.00,99.58
2045.00,99.60
2044.00,99.60
2043.00,99.61
2042.00,99.61
2041.00,99.61
2040.00,99.60
2039.00,99.59
2038.00,99.56
2037.00,99.54
2036.00,99.53
2035.00,99.56
2034.00,99.59
2033.00,99.62
2032.00,99.64
2031.00,99.64
2030.00,99.64
2029.00,99.65
2028.00,99.66
2027.00,99.66
2026.00,99.66
2025.00,99.66
2024.00,99.65
2023.00,99.65
2022.00,99.66
2021.00,99.67
2020.00,99.68
2019.00,99.67
2018.00,99.65
2017.00,99.63
2016.00,99.63
2015.00,99.62
2014.00,99.63
2013.00,99.64
2012.00,99.64
2011.00,99.64
2010.00,99.64
2009.00,99.64
2008.00,99.65
2007.00,99.67
2006.00,99.69
2005.00,99.70
2004.00,99.70
2003.00,99.69
2002.00,99.68
2001.00,99.68
2000.00,99.66
1999.00,99.65
1998.00,99.64
1997.00,99.63
1996.00,99.63
1995.00,99.63
1994.00,99.62
1993.00,99.62
1992.00,99.62
1991.00,99.62
1990.00,99.62
1989.00,99.62
1988.00,99.62
1987.00,99.62
1986.00,99.61
1985.00,99.60
1984.00,99.57
1983.00,99.54
1982.00,99.50
1981.00,99.46
1980.00,99.43
1979.00,99.43
1978.00,99.47
1977.00,99.53
1976.00,99.59
1975.00,99.64
1974.00,99.66
1973.00,99.67
1972.00,99.67
1971.00,99.67
1970.00,99.68
1969.00,99.69
1968.00,99.70
1967.00,99.70
1966.00,99.69
1965.00,99.69
1964.00,99.68
1963.00,99.67
1962.00,99.67
1961.00,99.68
1960.00,99.69
1959.00,99.70
1958.00,99.70
1957.00,99.69
1956.00,99.68
1955.00,99.66
1954.00,99.64
1953.00,99.63
1952.00,99.62
1951.00,99.63
1950.00,99.64
1949.00,99.65
1948.00,99.66
1947.00,99.67
1946.00,99.66
1945.00,99.66
1944.00,99.65
1943.00,99.64
1942.00,99.64
1941.00,99.64
1940.00,99.65
1939.00,99.65
1938.00,99.66
1937.00,99.66
1936.00,99.67
1935.00,99.67
1934.00,99.68
1933.00,99.68
1932.00,99.69
1931.00,99.70
1930.00,99.71
1929.00,99.72
1928.00,99.73
1927.00,99.74
1926.00,99.75
1925.00,99.75
1924.00,99.75
1923.00,99.75
1922.00,99.75
1921.00,99.75
1920.00,99.75
1919.00,99.75
1918.00,99.75
1917.00,99.75
1916.00,99.75
1915.00,99.75
1914.00,99.76
1913.00,99.76
1912.00,99.76
1911.00,99.75
1910.00,99.75
1909.00,99.74
1908.00,99.74
1907.00,99.74
1906.00,99.75
1905.00,99.75
1904.00,99.76
1903.00,99.76
1902.00,99.76
1901.00,99.76
1900.00,99.75
1899.00,99.74
1898.00,99.74
1897.00,99.73
1896.00,99.73
1895.00,99.73
1894.00,99.72
1893.00,99.71
1892.00,99.71
1891.00,99.70
1890.00,99.70
1889.00,99.70
1888.00,99.69
1887.00,99.69
1886.00,99.69
1885.00,99.69
1884.00,99.69
1883.00,99.69
1882.00,99.69
1881.00,99.68
1880.00,99.68
1879.00,99.67
1878.00,99.67
1877.00,99.68
1876.00,99.67
1875.00,99.67
1874.00,99.67
1873.00,99.67
1872.00,99.67
1871.00,99.67
1870.00,99.67
1869.00,99.67
1868.00,99.67
1867.00,99.67
1866.00,99.68
1865.00,99.69
1864.00,99.69
1863.00,99.70
1862.00,99.70
1861.00,99.71
1860.00,99.71
1859.00,99.72
1858.00,99.73
1857.00,99.74
1856.00,99.74
1855.00,99.74
1854.00,99.75
1853.00,99.75
1852.00,99.76
1851.00,99.76
1850.00,99.77
1849.00,99.77
1848.00,99.77
1847.00,99.77
1846.00,99.77
1845.00,99.78
1844.00,99.78
1843.00,99.78
1842.00,99.78
1841.00,99.78
1840.00,99.78
1839.00,99.78
1838.00,99.78
1837.00,99.78
1836.00,99.78
1835.00,99.78
1834.00,99.78
1833.00,99.78
1832.00,99.78
1831.00,99.77
1830.00,99.77
1829.00,99.77
1828.00,99.76
1827.00,99.75
1826.00,99.75
1825.00,99.74
1824.00,99.73
1823.00,99.73
1822.00,99.72
1821.00,99.72
1820.00,99.73
1819.00,99.74
1818.00,99.74
1817.00,99.74
1816.00,99.74
1815.00,99.73
1814.00,99.72
1813.00,99.71
1812.00,99.70
1811.00,99.69
1810.00,99.69
1809.00,99.68
1808.00,99.68
1807.00,99.67
1806.00,99.67
1805.00,99.67
1804.00,99.67
1803.00,99.67
1802.00,99.67
1801.00,99.68
1800.00,99.69
1799.00,99.69
1798.00,99.69
1797.00,99.69
1796.00,99.69
1795.00,99.69
1794.00,99.70
1793.00,99.71
1792.00,99.72
1791.00,99.72
1790.00,99.73
1789.00,99.73
1788.00,99.73
1787.00,99.74
1786.00,99.74
1785.00,99.75
1784.00,99.75
1783.00,99.75
1782.00,99.75
1781.00,99.75
1780.00,99.75
1779.00,99.75
1778.00,99.75
1777.00,99.76
1776.00,99.76
1775.00,99.76
1774.00,99.76
1773.00,99.76
1772.00,99.75
1771.00,99.75
1770.00,99.75
1769.00,99.75
1768.00,99.76
1767.00,99.76
1766.00,99.75
1765.00,99.75
1764.00,99.75
1763.00,99.75
1762.00,99.74
1761.00,99.74
1760.00,99.73
1759.00,99.73
1758.00,99.72
1757.00,99.72
1756.00,99.71
1755.00,99.71
1754.00,99.71
1753.00,99.71
1752.00,99.71
1751.00,99.70
1750.00,99.70
1749.00,99.69
1748.00,99.69
1747.00,99.69
1746.00,99.69
1745.00,99.69
1744.00,99.69
1743.00,99.68
1742.00,99.68
1741.00,99.68
1740.00,99.68
1739.00,99.69
1738.00,99.69
1737.00,99.70
1736.00,99.71
1735.00,99.71
1734.00,99.71
1733.00,99.71
1732.00,99.71
1731.00,99.71
1730.00,99.72
1729.00,99.73
1728.00,99.73
1727.00,99.73
1726.00,99.73
1725.00,99.73
1724.00,99.73
1723.00,99.74
1722.00,99.74
1721.00,99.73
1720.00,99.73
1719.00,99.73
1718.00,99.73
1717.00,99.73
1716.00,99.73
1715.00,99.74
1714.00,99.74
1713.00,99.74
1712.00,99.74
1711.00,99.74
1710.00,99.74
1709.00,99.74
1708.00,99.74
1707.00,99.74
1706.00,99.74
1705.00,99.75
1704.00,99.75
1703.00,99.75
1702.00,99.75
1701.00,99.75
1700.00,99.75
1699.00,99.74
1698.00,99.74
1697.00,99.74
1696.00,99.74
1695.00,99.74
1694.00,99.74
1693.00,99.73
1692.00,99.73
1691.00,99.74
1690.00,99.73
1689.00,99.73
1688.00,99.73
1687.00,99.73
1686.00,99.73
1685.00,99.73
1684.00,99.73
1683.00,99.72
1682.00,99.72
1681.00,99.72
1680.00,99.71
1679.00,99.71
1678.00,99.70
1677.00,99.70
1676.00,99.70
1675.00,99.70
1674.00,99.70
1673.00,99.70
1672.00,99.70
1671.00,99.70
1670.00,99.70
1669.00,99.70
1668.00,99.69
1667.00,99.69
1666.00,99.70
1665.00,99.70
1664.00,99.70
1663.00,99.70
1662.00,99.70
1661.00,99.70
1660.00,99.70
1659.00,99.71
1658.00,99.71
1657.00,99.71
1656.00,99.71
1655.00,99.71
1654.00,99.71
1653.00,99.71
1652.00,99.71
1651.00,99.71
1650.00,99.71
1649.00,99.72
1648.00,99.72
1647.00,99.72
1646.00,99.72
1645.00,99.72
1644.00,99.72
1643.00,99.72
1642.00,99.72
1641.00,99.73
1640.00,99.73
1639.00,99.73
1638.00,99.73
1637.00,99.73
1636.00,99.73
1635.00,99.73
1634.00,99.73
1633.00,99.73
1632.00,99.73
1631.00,99.73
1630.00,99.73
1629.00,99.72
1628.00,99.72
1627.00,99.72
1626.00,99.72
1625.00,99.72
1624.00,99.72
1623.00,99.72
1622.00,99.72
1621.00,99.72
1620.00,99.72
1619.00,99.72
1618.00,99.72
1617.00,99.71
1616.00,99.70
1615.00,99.68
1614.00,99.67
1613.00,99.65
1612.00,99.62
1611.00,99.59
1610.00,99.54
1609.00,99.48
1608.00,99.39
1607.00,99.29
1606.00,99.19
1605.00,99.09
1604.00,99.00
1603.00,98.93
1602.00,98.90
1601.00,98.91
1600.00,98.95
1599.00,99.02
1598.00,99.11
1597.00,99.19
1596.00,99.26
1595.00,99.32
1594.00,99.37
1593.00,99.41
1592.00,99.45
1591.00,99.47
1590.00,99.48
1589.00,99.48
1588.00,99.46
1587.00,99.44
1586.00,99.40
1585.00,99.37
1584.00,99.36
1583.00,99.36
1582.00,99.39
1581.00,99.43
1580.00,99.47
1579.00,99.51
1578.00,99.54
1577.00,99.57
1576.00,99.59
1575.00,99.60
1574.00,99.61
1573.00,99.62
1572.00,99.62
1571.00,99.63
1570.00,99.63
1569.00,99.64
1568.00,99.64
1567.00,99.64
1566.00,99.64
1565.00,99.64
1564.00,99.64
1563.00,99.64
1562.00,99.65
1561.00,99.65
1560.00,99.66
1559.00,99.66
1558.00,99.66
1557.00,99.65
1556.00,99.65
1555.00,99.64
1554.00,99.64
1553.00,99.64
1552.00,99.64
1551.00,99.63
1550.00,99.63
1549.00,99.62
1548.00,99.62
1547.00,99.61
1546.00,99.60
1545.00,99.59
1544.00,99.58
1543.00,99.58
1542.00,99.59
1541.00,99.59
1540.00,99.60
1539.00,99.61
1538.00,99.61
1537.00,99.62
1536.00,99.63
1535.00,99.64
1534.00,99.64
1533.00,99.65
1532.00,99.65
1531.00,99.66
1530.00,99.66
1529.00,99.67
1528.00,99.67
1527.00,99.67
1526.00,99.67
1525.00,99.68
1524.00,99.68
1523.00,99.69
1522.00,99.70
1521.00,99.71
1520.00,99.71
1519.00,99.70
1518.00,99.70
1517.00,99.70
1516.00,99.70
1515.00,99.70
1514.00,99.70
1513.00,99.70
1512.00,99.70
1511.00,99.69
1510.00,99.69
1509.00,99.69
1508.00,99.68
1507.00,99.66
1506.00,99.64
1505.00,99.62
1504.00,99.60
1503.00,99.56
1502.00,99.52
1501.00,99.45
1500.00,99.35
1499.00,99.20
1498.00,98.95
1497.00,98.60
1496.00,98.21
1495.00,97.87
1494.00,97.66
1493.00,97.60
1492.00,97.68
1491.00,97.91
1490.00,98.23
1489.00,98.53
1488.00,98.76
1487.00,98.93
1486.00,99.06
1485.00,99.16
1484.00,99.23
1483.00,99.30
1482.00,99.35
1481.00,99.39
1480.00,99.42
1479.00,99.44
1478.00,99.45
1477.00,99.47
1476.00,99.48
1475.00,99.49
1474.00,99.50
1473.00,99.50
1472.00,99.51
1471.00,99.52
1470.00,99.52
1469.00,99.52
1468.00,99.52
1467.00,99.52
1466.00,99.51
1465.00,99.50
1464.00,99.48
1463.00,99.45
1462.00,99.43
1461.00,99.39
1460.00,99.33
1459.00,99.22
1458.00,98.99
1457.00,98.62
1456.00,98.23
1455.00,97.94
1454.00,97.73
1453.00,97.60
1452.00,97.55
1451.00,97.61
1450.00,97.72
1449.00,97.87
1448.00,98.02
1447.00,98.16
1446.00,98.27
1445.00,98.37
1444.00,98.47
1443.00,98.57
1442.00,98.66
1441.00,98.74
1440.00,98.81
1439.00,98.87
1438.00,98.94
1437.00,99.01
1436.00,99.08
1435.00,99.14
1434.00,99.18
1433.00,99.23
1432.00,99.27
1431.00,99.31
1430.00,99.35
1429.00,99.38
1428.00,99.41
1427.00,99.43
1426.00,99.44
1425.00,99.45
1424.00,99.46
1423.00,99.47
1422.00,99.48
1421.00,99.48
1420.00,99.49
1419.00,99.50
1418.00,99.51
1417.00,99.52
1416.00,99.52
1415.00,99.52
1414.00,99.52
1413.00,99.53
1412.00,99.53
1411.00,99.53
1410.00,99.54
1409.00,99.54
1408.00,99.54
1407.00,99.54
1406.00,99.54
1405.00,99.54
1404.00,99.54
1403.00,99.54
1402.00,99.54
1401.00,99.55
1400.00,99.55
1399.00,99.55
1398.00,99.54
1397.00,99.54
1396.00,99.53
1395.00,99.52
1394.00,99.51
1393.00,99.50
1392.00,99.49
1391.00,99.48
1390.00,99.47
1389.00,99.46
1388.00,99.44
1387.00,99.42
1386.00,99.41
1385.00,99.40
1384.00,99.39
1383.00,99.37
1382.00,99.36
1381.00,99.35
1380.00,99.33
1379.00,99.32
1378.00,99.30
1377.00,99.29
1376.00,99.28
1375.00,99.27
1374.00,99.26
1373.00,99.26
1372.00,99.25
1371.00,99.25
1370.00,99.25
1369.00,99.26
1368.00,99.26
1367.00,99.27
1366.00,99.27
1365.00,99.27
1364.00,99.28
1363.00,99.28
1362.00,99.28
1361.00,99.28
1360.00,99.29
1359.00,99.30
1358.00,99.31
1357.00,99.31
1356.00,99.31
1355.00,99.32
1354.00,99.32
1353.00,99.32
1352.00,99.32
1351.00,99.32
1350.00,99.32
1349.00,99.32
1348.00,99.32
1347.00,99.32
1346.00,99.33
1345.00,99.34
1344.00,99.35
1343.00,99.35
1342.00,99.36
1341.00,99.36
1340.00,99.36
1339.00,99.36
1338.00,99.36
1337.00,99.36
1336.00,99.36
1335.00,99.35
1334.00,99.35
1333.00,99.34
1332.00,99.33
1331.00,99.32
1330.00,99.31
1329.00,99.31
1328.00,99.31
1327.00,99.31
1326.00,99.31
1325.00,99.32
1324.00,99.32
1323.00,99.33
1322.00,99.34
1321.00,99.34
1320.00,99.34
1319.00,99.34
1318.00,99.34
1317.00,99.33
1316.00,99.33
1315.00,99.33
1314.00,99.33
1313.00,99.32
1312.00,99.32
1311.00,99.32
1310.00,99.33
1309.00,99.33
1308.00,99.34
1307.00,99.34
1306.00,99.35
1305.00,99.35
1304.00,99.36
1303.00,99.37
1302.00,99.38
1301.00,99.38
1300.00,99.39
1299.00,99.39
1298.00,99.40
1297.00,99.40
1296.00,99.40
1295.00,99.41
1294.00,99.41
1293.00,99.42
1292.00,99.42
1291.00,99.43
1290.00,99.43
1289.00,99.43
1288.00,99.44
1287.00,99.44
1286.00,99.44
1285.00,99.44
1284.00,99.44
1283.00,99.44
1282.00,99.44
1281.00,99.45
1280.00,99.46
1279.00,99.46
1278.00,99.46
1277.00,99.47
1276.00,99.48
1275.00,99.48
1274.00,99.49
1273.00,99.50
1272.00,99.50
1271.00,99.51
1270.00,99.52
1269.00,99.53
1268.00,99.54
1267.00,99.54
1266.00,99.55
1265.00,99.55
1264.00,99.56
1263.00,99.56
1262.00,99.56
1261.00,99.56
1260.00,99.57
1259.00,99.57
1258.00,99.57
1257.00,99.57
1256.00,99.57
1255.00,99.58
1254.00,99.58
1253.00,99.58
1252.00,99.59
1251.00,99.59
1250.00,99.59
1249.00,99.60
1248.00,99.60
1247.00,99.60
1246.00,99.60
1245.00,99.60
1244.00,99.60
1243.00,99.61
1242.00,99.62
1241.00,99.62
1240.00,99.63
1239.00,99.63
1238.00,99.63
1237.00,99.63
1236.00,99.62
1235.00,99.62
1234.00,99.61
1233.00,99.61
1232.00,99.61
1231.00,99.61
1230.00,99.61
1229.00,99.62
1228.00,99.62
1227.00,99.61
1226.00,99.60
1225.00,99.58
1224.00,99.57
1223.00,99.57
1222.00,99.58
1221.00,99.58
1220.00,99.59
1219.00,99.59
1218.00,99.59
1217.00,99.59
1216.00,99.59
1215.00,99.58
1214.00,99.58
1213.00,99.58
1212.00,99.58
1211.00,99.58
1210.00,99.57
1209.00,99.57
1208.00,99.56
1207.00,99.56
1206.00,99.55
1205.00,99.54
1204.00,99.53
1203.00,99.52
1202.00,99.51
1201.00,99.51
1200.00,99.50
1199.00,99.49
1198.00,99.49
1197.00,99.48
1196.00,99.48
1195.00,99.47
1194.00,99.46
1193.00,99.46
1192.00,99.45
1191.00,99.45
1190.00,99.44
1189.00,99.44
1188.00,99.42
1187.00,99.41
1186.00,99.39
1185.00,99.37
1184.00,99.35
1183.00,99.33
1182.00,99.32
1181.00,99.32
1180.00,99.32
1179.00,99.34
1178.00,99.37
1177.00,99.40
1176.00,99.43
1175.00,99.45
1174.00,99.47
1173.00,99.49
1172.00,99.50
1171.00,99.50
1170.00,99.50
1169.00,99.50
1168.00,99.50
1167.00,99.50
1166.00,99.50
1165.00,99.50
1164.00,99.49
1163.00,99.48
1162.00,99.47
1161.00,99.45
1160.00,99.41
1159.00,99.38
1158.00,99.35
1157.00,99.32
1156.00,99.30
1155.00,99.29
1154.00,99.29
1153.00,99.31
1152.00,99.35
1151.00,99.39
1150.00,99.42
1149.00,99.46
1148.00,99.48
1147.00,99.50
1146.00,99.51
1145.00,99.52
1144.00,99.53
1143.00,99.54
1142.00,99.56
1141.00,99.57
1140.00,99.57
1139.00,99.58
1138.00,99.57
1137.00,99.57
1136.00,99.58
1135.00,99.58
1134.00,99.58
1133.00,99.58
1132.00,99.58
1131.00,99.59
1130.00,99.59
1129.00,99.60
1128.00,99.60
1127.00,99.59
1126.00,99.59
1125.00,99.59
1124.00,99.59
1123.00,99.59
1122.00,99.59
1121.00,99.58
1120.00,99.57
1119.00,99.56
1118.00,99.55
1117.00,99.54
1116.00,99.53
1115.00,99.52
1114.00,99.51
1113.00,99.51
1112.00,99.51
1111.00,99.52
1110.00,99.52
1109.00,99.52
1108.00,99.52
1107.00,99.53
1106.00,99.53
1105.00,99.53
1104.00,99.53
1103.00,99.53
1102.00,99.53
1101.00,99.53
1100.00,99.52
1099.00,99.52
1098.00,99.51
1097.00,99.50
1096.00,99.49
1095.00,99.48
1094.00,99.47
1093.00,99.46
1092.00,99.47
1091.00,99.47
1090.00,99.47
1089.00,99.46
1088.00,99.45
1087.00,99.43
1086.00,99.42
1085.00,99.41
1084.00,99.39
1083.00,99.38
1082.00,99.36
1081.00,99.34
1080.00,99.33
1079.00,99.31
1078.00,99.29
1077.00,99.26
1076.00,99.23
1075.00,99.20
1074.00,99.17
1073.00,99.14
1072.00,99.12
1071.00,99.11
1070.00,99.10
1069.00,99.10
1068.00,99.11
1067.00,99.12
1066.00,99.14
1065.00,99.16
1064.00,99.17
1063.00,99.19
1062.00,99.21
1061.00,99.23
1060.00,99.25
1059.00,99.28
1058.00,99.30
1057.00,99.32
1056.00,99.33
1055.00,99.34
1054.00,99.35
1053.00,99.36
1052.00,99.37
1051.00,99.39
1050.00,99.40
1049.00,99.40
1048.00,99.40
1047.00,99.40
1046.00,99.41
1045.00,99.41
1044.00,99.41
1043.00,99.41
1042.00,99.41
1041.00,99.40
1040.00,99.38
1039.00,99.36
1038.00,99.32
1037.00,99.27
1036.00,99.20
1035.00,99.10
1034.00,99.00
1033.00,98.89
1032.00,98.79
1031.00,98.70
1030.00,98.64
1029.00,98.60
1028.00,98.60
1027.00,98.64
1026.00,98.70
1025.00,98.77
1024.00,98.83
1023.00,98.89
1022.00,98.94
1021.00,98.97
1020.00,99.01
1019.00,99.06
1018.00,99.09
1017.00,99.12
1016.00,99.14
1015.00,99.16
1014.00,99.17
1013.00,99.18
1012.00,99.20
1011.00,99.21
1010.00,99.22
1009.00,99.23
1008.00,99.23
1007.00,99.23
1006.00,99.21
1005.00,99.20
1004.00,99.19
1003.00,99.19
1002.00,99.21
1001.00,99.24
1000.00,99.27
999.00,99.30
998.00,99.32
997.00,99.33
996.00,99.34
995.00,99.34
994.00,99.34
993.00,99.34
992.00,99.33
991.00,99.33
990.00,99.33
989.00,99.33
988.00,99.32
987.00,99.31
986.00,99.29
985.00,99.27
984.00,99.26
983.00,99.26
982.00,99.25
981.00,99.23
980.00,99.22
979.00,99.21
978.00,99.22
977.00,99.23
976.00,99.25
975.00,99.27
974.00,99.28
973.00,99.28
972.00,99.28
971.00,99.27
970.00,99.26
969.00,99.24
968.00,99.23
967.00,99.21
966.00,99.19
965.00,99.18
964.00,99.18
963.00,99.18
962.00,99.20
961.00,99.21
960.00,99.23
959.00,99.26
958.00,99.28
957.00,99.29
956.00,99.30
955.00,99.31
954.00,99.31
953.00,99.32
952.00,99.32
951.00,99.33
950.00,99.33
949.00,99.32
948.00,99.32
947.00,99.31
946.00,99.30
945.00,99.30
944.00,99.29
943.00,99.29
942.00,99.29
941.00,99.29
940.00,99.30
939.00,99.32
938.00,99.34
937.00,99.35
936.00,99.36
935.00,99.36
934.00,99.37
933.00,99.38
932.00,99.39
931.00,99.39
930.00,99.39
929.00,99.40
928.00,99.41
927.00,99.42
926.00,99.42
925.00,99.41
924.00,99.40
923.00,99.39
922.00,99.38
921.00,99.37
920.00,99.35
919.00,99.33
918.00,99.30
917.00,99.27
916.00,99.24
915.00,99.20
914.00,99.15
913.00,99.10
912.00,99.04
911.00,98.99
910.00,98.95
909.00,98.92
908.00,98.89
907.00,98.87
906.00,98.86
905.00,98.86
904.00,98.88
903.00,98.92
902.00,98.98
901.00,99.03
900.00,99.08
899.00,99.13
898.00,99.18
897.00,99.21
896.00,99.24
895.00,99.26
894.00,99.28
893.00,99.30
892.00,99.31
891.00,99.33
890.00,99.35
889.00,99.36
888.00,99.37
887.00,99.36
886.00,99.37
885.00,99.38
884.00,99.40
883.00,99.42
882.00,99.43
881.00,99.43
880.00,99.44
879.00,99.44
878.00,99.43
877.00,99.43
876.00,99.43
875.00,99.44
874.00,99.44
873.00,99.44
872.00,99.44
871.00,99.43
870.00,99.43
869.00,99.43
868.00,99.44
867.00,99.44
866.00,99.45
865.00,99.45
864.00,99.45
863.00,99.45
862.00,99.45
861.00,99.45
860.00,99.45
859.00,99.45
858.00,99.45
857.00,99.45
856.00,99.46
855.00,99.46
854.00,99.45
853.00,99.44
852.00,99.42
851.00,99.40
850.00,99.37
849.00,99.34
848.00,99.31
847.00,99.28
846.00,99.26
845.00,99.24
844.00,99.23
843.00,99.22
842.00,99.21
841.00,99.21
840.00,99.22
839.00,99.24
838.00,99.26
837.00,99.28
836.00,99.30
835.00,99.33
834.00,99.35
833.00,99.38
832.00,99.41
831.00,99.42
830.00,99.44
829.00,99.45
828.00,99.45
827.00,99.44
826.00,99.44
825.00,99.43
824.00,99.44
823.00,99.44
822.00,99.44
821.00,99.44
820.00,99.45
819.00,99.46
818.00,99.48
817.00,99.49
816.00,99.49
815.00,99.49
814.00,99.49
813.00,99.49
812.00,99.48
811.00,99.47
810.00,99.46
809.00,99.46
808.00,99.46
807.00,99.46
806.00,99.45
805.00,99.45
804.00,99.44
803.00,99.42
802.00,99.41
801.00,99.41
800.00,99.42
799.00,99.42
798.00,99.41
797.00,99.40
796.00,99.39
795.00,99.37
794.00,99.36
793.00,99.35
792.00,99.34
791.00,99.33
790.00,99.31
789.00,99.29
788.00,99.27
787.00,99.25
786.00,99.22
785.00,99.19
784.00,99.15
783.00,99.10
782.00,99.04
781.00,98.99
780.00,98.94
779.00,98.88
778.00,98.81
777.00,98.73
776.00,98.64
775.00,98.55
774.00,98.44
773.00,98.33
772.00,98.21
771.00,98.08
770.00,97.95
769.00,97.82
768.00,97.69
767.00,97.55
766.00,97.43
765.00,97.30
764.00,97.17
763.00,97.03
762.00,96.88
761.00,96.74
760.00,96.61
759.00,96.51
758.00,96.42
757.00,96.36
756.00,96.31
755.00,96.28
754.00,96.26
753.00,96.26
752.00,96.25
751.00,96.25
750.00,96.24
749.00,96.23
748.00,96.23
747.00,96.25
746.00,96.30
745.00,96.40
744.00,96.54
743.00,96.72
742.00,96.93
741.00,97.13
740.00,97.31
739.00,97.47
738.00,97.63
737.00,97.80
736.00,97.97
735.00,98.14
734.00,98.31
733.00,98.47
732.00,98.61
731.00,98.73
730.00,98.83
729.00,98.91
728.00,98.97
727.00,99.03
726.00,99.08
725.00,99.11
724.00,99.14
723.00,99.16
722.00,99.18
721.00,99.20
720.00,99.21
719.00,99.22
718.00,99.22
717.00,99.20
716.00,99.16
715.00,99.12
714.00,99.06
713.00,98.97
712.00,98.85
711.00,98.67
710.00,98.43
709.00,98.14
708.00,97.79
707.00,97.40
706.00,96.95
705.00,96.47
704.00,95.97
703.00,95.47
702.00,94.96
701.00,94.46
700.00,93.96
699.00,93.46
698.00,92.99
697.00,92.57
696.00,92.23
695.00,92.01
694.00,91.97
693.00,92.11
692.00,92.46
691.00,92.95
690.00,93.53
689.00,94.11
688.00,94.63
687.00,95.07
686.00,95.44
685.00,95.74
684.00,95.98
683.00,96.18
682.00,96.36
681.00,96.51
680.00,96.66
679.00,96.79
678.00,96.91
677.00,97.02
676.00,97.11
675.00,97.18
674.00,97.22
673.00,97.25
672.00,97.28
671.00,97.29
670.00,97.31
669.00,97.33
668.00,97.38
667.00,97.46
666.00,97.53
665.00,97.59
664.00,97.64
663.00,97.68
662.00,97.71
661.00,97.74
660.00,97.78
659.00,97.85
658.00,97.92
657.00,97.98
656.00,98.00
655.00,98.00
654.00,98.00
653.00,98.02
652.00,98.05
651.00,98.09
650.00,98.13
