Created as New Dataset,PS pellet 35kDa Sigma
cm-1,%T
4000.00,94.95
3999.00,94.95
3998.00,94.96
3997.00,94.96
3996.00,94.96
3995.00,94.96
3994.00,94.96
3993.00,94.97
3992.00,94.97
3991.00,94.96
3990.00,94.96
3989.00,94.96
3988.00,94.96
3987.00,94.96
3986.00,94.96
3985.00,94.96
3984.00,94.97
3983.00,94.97
3982.00,94.97
3981.00,94.97
3980.00,94.97
3979.00,94.97
3978.00,94.96
3977.00,94.96
3976.00,94.96
3975.00,94.96
3974.00,94.96
3973.00,94.96
3972.00,94.96
3971.00,94.96
3970.00,94.96
3969.00,94.96
3968.00,94.97
3967.00,94.97
3966.00,94.97
3965.00,94.97
3964.00,94.97
3963.00,94.97
3962.00,94.97
3961.00,94.97
3960.00,94.97
3959.00,94.97
3958.00,94.97
3957.00,94.97
3956.00,94.97
3955.00,94.97
3954.00,94.96
3953.00,94.96
3952.00,94.96
3951.00,94.96
3950.00,94.96
3949.00,94.96
3948.00,94.96
3947.00,94.96
3946.00,94.96
3945.00,94.96
3944.00,94.96
3943.00,94.96
3942.00,94.96
3941.00,94.96
3940.00,94.96
3939.00,94.96
3938.00,94.96
3937.00,94.96
3936.00,94.96
3935.00,94.95
3934.00,94.95
3933.00,94.95
3932.00,94.95
3931.00,94.95
3930.00,94.95
3929.00,94.96
3928.00,94.96
3927.00,94.96
3926.00,94.96
3925.00,94.96
3924.00,94.96
3923.00,94.96
3922.00,94.96
3921.00,94.96
3920.00,94.96
3919.00,94.95
3918.00,94.95
3917.00,94.95
3916.00,94.95
3915.00,94.94
3914.00,94.94
3913.00,94.94
3912.00,94.94
3911.00,94.94
3910.00,94.94
3909.00,94.95
3908.00,94.95
3907.00,94.95
3906.00,94.95
3905.00,94.95
3904.00,94.95
3903.00,94.95
3902.00,94.95
3901.00,94.95
3900.00,94.95
3899.00,94.95
3898.00,94.95
3897.00,94.95
3896.00,94.94
3895.00,94.94
3894.00,94.94
3893.00,94.94
3892.00,94.94
3891.00,94.94
3890.00,94.94
3889.00,94.94
3888.00,94.94
3887.00,94.94
3886.00,94.94
3885.00,94.94
3884.00,94.95
3883.00,94.94
3882.00,94.94
3881.00,94.94
3880.00,94.94
3879.00,94.94
3878.00,94.94
3877.00,94.93
3876.00,94.93
3875.00,94.93
3874.00,94.94
3873.00,94.94
3872.00,94.93
3871.00,94.93
3870.00,94.93
3869.00,94.94
3868.00,94.94
3867.00,94.93
3866.00,94.93
3865.00,94.93
3864.00,94.92
3863.00,94.92
3862.00,94.92
3861.00,94.92
3860.00,94.92
3859.00,94.93
3858.00,94.94
3857.00,94.94
3856.00,94.95
3855.00,94.95
3854.00,94.94
3853.00,94.94
3852.00,94.93
3851.00,94.93
3850.00,94.93
3849.00,94.92
3848.00,94.92
3847.00,94.91
3846.00,94.91
3845.00,94.91
3844.00,94.91
3843.00,94.91
3842.00,94.91
3841.00,94.91
3840.00,94.91
3839.00,94.91
3838.00,94.91
3837.00,94.91
3836.00,94.91
3835.00,94.91
3834.00,94.90
3833.00,94.90
3832.00,94.90
3831.00,94.90
3830.00,94.89
3829.00,94.89
3828.00,94.89
3827.00,94.89
3826.00,94.90
3825.00,94.90
3824.00,94.90
3823.00,94.89
3822.00,94.89
3821.00,94.89
3820.00,94.89
3819.00,94.89
3818.00,94.88
3817.00,94.88
3816.00,94.88
3815.00,94.88
3814.00,94.88
3813.00,94.87
3812.00,94.87
3811.00,94.87
3810.00,94.87
3809.00,94.87
3808.00,94.87
3807.00,94.87
3806.00,94.87
3805.00,94.87
3804.00,94.87
3803.00,94.87
3802.00,94.87
3801.00,94.88
3800.00,94.87
3799.00,94.87
3798.00,94.86
3797.00,94.86
3796.00,94.86
3795.00,94.86
3794.00,94.86
3793.00,94.86
3792.00,94.85
3791.00,94.85
3790.00,94.85
3789.00,94.85
3788.00,94.85
3787.00,94.85
3786.00,94.85
3785.00,94.85
3784.00,94.86
3783.00,94.86
3782.00,94.85
3781.00,94.85
3780.00,94.85
3779.00,94.85
3778.00,94.85
3777.00,94.85
3776.00,94.85
3775.00,94.84
3774.00,94.84
3773.00,94.84
3772.00,94.84
3771.00,94.84
3770.00,94.84
3769.00,94.84
3768.00,94.84
3767.00,94.84
3766.00,94.84
3765.00,94.84
3764.00,94.84
3763.00,94.83
3762.00,94.83
3761.00,94.83
3760.00,94.83
3759.00,94.83
3758.00,94.83
3757.00,94.83
3756.00,94.83
3755.00,94.83
3754.00,94.83
3753.00,94.83
3752.00,94.83
3751.00,94.83
3750.00,94.84
3749.00,94.84
3748.00,94.84
3747.00,94.84
3746.00,94.84
3745.00,94.84
3744.00,94.83
3743.00,94.83
3742.00,94.83
3741.00,94.82
3740.00,94.81
3739.00,94.81
3738.00,94.82
3737.00,94.82
3736.00,94.82
3735.00,94.82
3734.00,94.82
3733.00,94.82
3732.00,94.82
3731.00,94.82
3730.00,94.82
3729.00,94.82
3728.00,94.81
3727.00,94.81
3726.00,94.81
3725.00,94.81
3724.00,94.80
3723.00,94.80
3722.00,94.80
3721.00,94.80
3720.00,94.80
3719.00,94.80
3718.00,94.80
3717.00,94.80
3716.00,94.80
3715.00,94.81
3714.00,94.81
3713.00,94.80
3712.00,94.80
3711.00,94.80
3710.00,94.80
3709.00,94.81
3708.00,94.81
3707.00,94.81
3706.00,94.81
3705.00,94.81
3704.00,94.81
3703.00,94.81
3702.00,94.80
3701.00,94.80
3700.00,94.80
3699.00,94.80
3698.00,94.79
3697.00,94.79
3696.00,94.79
3695.00,94.80
3694.00,94.81
3693.00,94.81
3692.00,94.82
3691.00,94.82
3690.00,94.82
3689.00,94.82
3688.00,94.81
3687.00,94.81
3686.00,94.81
3685.00,94.80
3684.00,94.80
3683.00,94.80
3682.00,94.80
3681.00,94.80
3680.00,94.80
3679.00,94.80
3678.00,94.81
3677.00,94.81
3676.00,94.81
3675.00,94.82
3674.00,94.82
3673.00,94.82
3672.00,94.82
3671.00,94.82
3670.00,94.82
3669.00,94.82
3668.00,94.82
3667.00,94.82
3666.00,94.81
3665.00,94.81
3664.00,94.80
3663.00,94.80
3662.00,94.80
3661.00,94.80
3660.00,94.80
3659.00,94.80
3658.00,94.80
3657.00,94.80
3656.00,94.80
3655.00,94.80
3654.00,94.79
3653.00,94.79
3652.00,94.79
3651.00,94.79
3650.00,94.79
3649.00,94.79
3648.00,94.79
3647.00,94.80
3646.00,94.80
3645.00,94.80
3644.00,94.81
3643.00,94.81
3642.00,94.81
3641.00,94.82
3640.00,94.82
3639.00,94.82
3638.00,94.82
3637.00,94.83
3636.00,94.83
3635.00,94.84
3634.00,94.85
3633.00,94.85
3632.00,94.86
3631.00,94.86
3630.00,94.85
3629.00,94.85
3628.00,94.85
3627.00,94.84
3626.00,94.84
3625.00,94.84
3624.00,94.84
3623.00,94.84
3622.00,94.84
3621.00,94.84
3620.00,94.84
3619.00,94.85
3618.00,94.85
3617.00,94.86
3616.00,94.86
3615.00,94.87
3614.00,94.87
3613.00,94.88
3612.00,94.88
3611.00,94.88
3610.00,94.88
3609.00,94.88
3608.00,94.89
3607.00,94.89
3606.00,94.89
3605.00,94.89
3604.00,94.89
3603.00,94.89
3602.00,94.90
3601.00,94.90
3600.00,94.90
3599.00,94.90
3598.00,94.90
3597.00,94.90
3596.00,94.90
3595.00,94.90
3594.00,94.91
3593.00,94.91
3592.00,94.92
3591.00,94.92
3590.00,94.91
3589.00,94.91
3588.00,94.91
3587.00,94.92
3586.00,94.92
3585.00,94.93
3584.00,94.93
3583.00,94.93
3582.00,94.93
3581.00,94.94
3580.00,94.94
3579.00,94.94
3578.00,94.94
3577.00,94.94
3576.00,94.95
3575.00,94.95
3574.00,94.95
3573.00,94.94
3572.00,94.94
3571.00,94.94
3570.00,94.94
3569.00,94.95
3568.00,94.95
3567.00,94.96
3566.00,94.96
3565.00,94.96
3564.00,94.96
3563.00,94.96
3562.00,94.95
3561.00,94.95
3560.00,94.95
3559.00,94.95
3558.00,94.96
3557.00,94.96
3556.00,94.96
3555.00,94.97
3554.00,94.97
3553.00,94.97
3552.00,94.97
3551.00,94.97
3550.00,94.97
3549.00,94.97
3548.00,94.97
3547.00,94.97
3546.00,94.97
3545.00,94.97
3544.00,94.97
3543.00,94.97
3542.00,94.97
3541.00,94.97
3540.00,94.97
3539.00,94.97
3538.00,94.97
3537.00,94.97
3536.00,94.97
3535.00,94.97
3534.00,94.97
3533.00,94.98
3532.00,94.98
3531.00,94.98
3530.00,94.98
3529.00,94.98
3528.00,94.98
3527.00,94.98
3526.00,94.98
3525.00,94.98
3524.00,94.98
3523.00,94.98
3522.00,94.98
3521.00,94.98
3520.00,94.98
3519.00,94.98
3518.00,94.98
3517.00,94.97
3516.00,94.97
3515.00,94.97
3514.00,94.98
3513.00,94.98
3512.00,94.98
3511.00,94.98
3510.00,94.98
3509.00,94.97
3508.00,94.98
3507.00,94.98
3506.00,94.98
3505.00,94.98
3504.00,94.98
3503.00,94.99
3502.00,94.99
3501.00,94.99
3500.00,94.99
3499.00,94.99
3498.00,94.99
3497.00,94.99
3496.00,94.99
3495.00,94.99
3494.00,94.98
3493.00,94.98
3492.00,94.98
3491.00,94.97
3490.00,94.98
3489.00,94.98
3488.00,94.98
3487.00,94.98
3486.00,94.99
3485.00,94.99
3484.00,94.99
3483.00,94.99
3482.00,94.99
3481.00,94.99
3480.00,94.98
3479.00,94.98
3478.00,94.98
3477.00,94.98
3476.00,94.98
3475.00,94.98
3474.00,94.98
3473.00,94.98
3472.00,94.98
3471.00,94.98
3470.00,94.98
3469.00,94.98
3468.00,94.98
3467.00,94.99
3466.00,94.99
3465.00,94.99
3464.00,94.98
3463.00,94.98
3462.00,94.98
3461.00,94.98
3460.00,94.98
3459.00,94.98
3458.00,94.98
3457.00,94.98
3456.00,94.98
3455.00,94.98
3454.00,94.98
3453.00,94.98
3452.00,94.98
3451.00,94.98
3450.00,94.98
3449.00,94.98
3448.00,94.98
3447.00,94.98
3446.00,94.98
3445.00,94.98
3444.00,94.98
3443.00,94.98
3442.00,94.98
3441.00,94.98
3440.00,94.98
3439.00,94.99
3438.00,94.99
3437.00,94.99
3436.00,94.99
3435.00,94.99
3434.00,94.99
3433.00,94.99
3432.00,94.99
3431.00,94.99
3430.00,95.00
3429.00,95.00
3428.00,95.00
3427.00,95.00
3426.00,95.00
3425.00,95.00
3424.00,95.00
3423.00,95.01
3422.00,95.00
3421.00,95.00
3420.00,94.99
3419.00,94.99
3418.00,94.99
3417.00,95.00
3416.00,95.00
3415.00,95.00
3414.00,95.00
3413.00,95.00
3412.00,95.00
3411.00,95.00
3410.00,95.00
3409.00,95.00
3408.00,94.99
3407.00,94.99
3406.00,94.99
3405.00,95.00
3404.00,95.00
3403.00,95.00
3402.00,95.00
3401.00,95.01
3400.00,95.00
3399.00,95.00
3398.00,95.00
3397.00,95.00
3396.00,95.00
3395.00,95.01
3394.00,95.01
3393.00,95.00
3392.00,95.00
3391.00,95.00
3390.00,95.00
3389.00,95.00
3388.00,95.00
3387.00,95.00
3386.00,95.00
3385.00,95.00
3384.00,95.00
3383.00,95.00
3382.00,95.00
3381.00,94.99
3380.00,94.99
3379.00,95.00
3378.00,95.00
3377.00,95.00
3376.00,95.00
3375.00,95.00
3374.00,95.00
3373.00,95.00
3372.00,95.00
3371.00,95.00
3370.00,95.00
3369.00,95.01
3368.00,95.01
3367.00,95.01
3366.00,95.01
3365.00,95.00
3364.00,95.00
3363.00,95.00
3362.00,94.99
3361.00,94.99
3360.00,94.99
3359.00,94.99
3358.00,94.99
3357.00,94.99
3356.00,94.99
3355.00,95.00
3354.00,95.00
3353.00,95.00
3352.00,95.00
3351.00,95.00
3350.00,95.00
3349.00,94.99
3348.00,94.99
3347.00,94.99
3346.00,94.99
3345.00,94.99
3344.00,94.99
3343.00,94.99
3342.00,94.99
3341.00,94.99
3340.00,94.99
3339.00,94.99
3338.00,94.99
3337.00,94.99
3336.00,94.99
3335.00,94.99
3334.00,94.99
3333.00,94.99
3332.00,94.99
3331.00,94.99
3330.00,94.99
3329.00,94.99
3328.00,94.99
3327.00,94.99
3326.00,95.00
3325.00,95.00
3324.00,95.00
3323.00,94.99
3322.00,94.99
3321.00,94.99
3320.00,94.99
3319.00,94.99
3318.00,94.99
3317.00,94.99
3316.00,94.99
3315.00,94.99
3314.00,94.99
3313.00,94.99
3312.00,94.98
3311.00,94.98
3310.00,94.98
3309.00,94.99
3308.00,94.99
3307.00,94.99
3306.00,94.99
3305.00,94.99
3304.00,94.99
3303.00,94.98
3302.00,94.98
3301.00,94.98
3300.00,94.98
3299.00,94.98
3298.00,94.98
3297.00,94.98
3296.00,94.98
3295.00,94.98
3294.00,94.97
3293.00,94.97
3292.00,94.97
3291.00,94.97
3290.00,94.97
3289.00,94.97
3288.00,94.97
3287.00,94.97
3286.00,94.97
3285.00,94.97
3284.00,94.97
3283.00,94.97
3282.00,94.97
3281.00,94.97
3280.00,94.98
3279.00,94.98
3278.00,94.98
3277.00,94.98
3276.00,94.97
3275.00,94.97
3274.00,94.97
3273.00,94.97
3272.00,94.98
3271.00,94.98
3270.00,94.98
3269.00,94.98
3268.00,94.98
3267.00,94.97
3266.00,94.97
3265.00,94.97
3264.00,94.97
3263.00,94.97
3262.00,94.97
3261.00,94.97
3260.00,94.97
3259.00,94.97
3258.00,94.97
3257.00,94.97
3256.00,94.97
3255.00,94.97
3254.00,94.96
3253.00,94.96
3252.00,94.96
3251.00,94.96
3250.00,94.97
3249.00,94.97
3248.00,94.98
3247.00,94.97
3246.00,94.97
3245.00,94.97
3244.00,94.97
3243.00,94.97
3242.00,94.97
3241.00,94.97
3240.00,94.97
3239.00,94.97
3238.00,94.97
3237.00,94.96
3236.00,94.96
3235.00,94.96
3234.00,94.96
3233.00,94.96
3232.00,94.96
3231.00,94.96
3230.00,94.96
3229.00,94.96
3228.00,94.96
3227.00,94.96
3226.00,94.97
3225.00,94.97
3224.00,94.96
3223.00,94.96
3222.00,94.96
3221.00,94.96
3220.00,94.96
3219.00,94.96
3218.00,94.96
3217.00,94.96
3216.00,94.96
3215.00,94.96
3214.00,94.96
3213.00,94.96
3212.00,94.96
3211.00,94.96
3210.00,94.95
3209.00,94.95
3208.00,94.95
3207.00,94.94
3206.00,94.94
3205.00,94.94
3204.00,94.94
3203.00,94.94
3202.00,94.94
3201.00,94.95
3200.00,94.95
3199.00,94.95
3198.00,94.95
3197.00,94.94
3196.00,94.94
3195.00,94.95
3194.00,94.95
3193.00,94.95
3192.00,94.96
3191.00,94.96
3190.00,94.96
3189.00,94.96
3188.00,94.96
3187.00,94.96
3186.00,94.96
3185.00,94.95
3184.00,94.95
3183.00,94.96
3182.00,94.96
3181.00,94.96
3180.00,94.96
3179.00,94.96
3178.00,94.96
3177.00,94.96
3176.00,94.96
3175.00,94.96
3174.00,94.96
3173.00,94.96
3172.00,94.96
3171.00,94.96
3170.00,94.95
3169.00,94.94
3168.00,94.94
3167.00,94.94
3166.00,94.93
3165.00,94.93
3164.00,94.93
3163.00,94.92
3162.00,94.92
3161.00,94.92
3160.00,94.92
3159.00,94.93
3158.00,94.94
3157.00,94.94
3156.00,94.95
3155.00,94.96
3154.00,94.96
3153.00,94.97
3152.00,94.97
3151.00,94.97
3150.00,94.97
3149.00,94.97
3148.00,94.97
3147.00,94.97
3146.00,94.97
3145.00,94.97
3144.00,94.98
3143.00,94.99
3142.00,94.99
3141.00,94.99
3140.00,94.99
3139.00,94.99
3138.00,94.99
3137.00,94.99
3136.00,94.99
3135.00,94.99
3134.00,94.99
3133.00,95.00
3132.00,95.00
3131.00,95.00
3130.00,94.99
3129.00,94.99
3128.00,94.98
3127.00,94.98
3126.00,94.99
3125.00,94.99
3124.00,94.98
3123.00,94.98
3122.00,94.97
3121.00,94.97
3120.00,94.96
3119.00,94.96
3118.00,94.94
3117.00,94.92
3116.00,94.89
3115.00,94.86
3114.00,94.82
3113.00,94.78
3112.00,94.74
3111.00,94.69
3110.00,94.63
3109.00,94.57
3108.00,94.51
3107.00,94.46
3106.00,94.42
3105.00,94.39
3104.00,94.37
3103.00,94.37
3102.00,94.38
3101.00,94.40
3100.00,94.41
3099.00,94.42
3098.00,94.42
3097.00,94.42
3096.00,94.39
3095.00,94.35
3094.00,94.29
3093.00,94.21
3092.00,94.10
3091.00,93.96
3090.00,93.80
3089.00,93.61
3088.00,93.41
3087.00,93.21
3086.00,93.03
3085.00,92.87
3084.00,92.77
3083.00,92.72
3082.00,92.73
3081.00,92.80
3080.00,92.89
3079.00,93.01
3078.00,93.13
3077.00,93.23
3076.00,93.30
3075.00,93.34
3074.00,93.36
3073.00,93.34
3072.00,93.29
3071.00,93.22
3070.00,93.11
3069.00,92.98
3068.00,92.82
3067.00,92.63
3066.00,92.43
3065.00,92.23
3064.00,92.03
3063.00,91.86
3062.00,91.72
3061.00,91.63
3060.00,91.61
3059.00,91.64
3058.00,91.74
3057.00,91.88
3056.00,92.05
3055.00,92.23
3054.00,92.41
3053.00,92.58
3052.00,92.74
3051.00,92.87
3050.00,92.99
3049.00,93.09
3048.00,93.17
3047.00,93.22
3046.00,93.25
3045.00,93.25
3044.00,93.23
3043.00,93.19
3042.00,93.12
3041.00,93.02
3040.00,92.89
3039.00,92.74
3038.00,92.55
3037.00,92.31
3036.00,92.03
3035.00,91.71
3034.00,91.33
3033.00,90.91
3032.00,90.44
3031.00,89.95
3030.00,89.47
3029.00,89.02
3028.00,88.64
3027.00,88.36
3026.00,88.22
3025.00,88.24
3024.00,88.41
3023.00,88.72
3022.00,89.14
3021.00,89.63
3020.00,90.14
3019.00,90.64
3018.00,91.11
3017.00,91.52
3016.00,91.88
3015.00,92.17
3014.00,92.41
3013.00,92.60
3012.00,92.75
3011.00,92.85
3010.00,92.91
3009.00,92.94
3008.00,92.93
3007.00,92.91
3006.00,92.87
3005.00,92.82
3004.00,92.79
3003.00,92.77
3002.00,92.77
3001.00,92.82
3000.00,92.90
2999.00,93.01
2998.00,93.14
2997.00,93.28
2996.00,93.41
2995.00,93.53
2994.00,93.64
2993.00,93.72
2992.00,93.79
2991.00,93.84
2990.00,93.87
2989.00,93.90
2988.00,93.92
2987.00,93.93
2986.00,93.93
2985.00,93.92
2984.00,93.92
2983.00,93.91
2982.00,93.89
2981.00,93.87
2980.00,93.84
2979.00,93.81
2978.00,93.78
2977.00,93.74
2976.00,93.71
2975.00,93.67
2974.00,93.62
2973.00,93.58
2972.00,93.53
2971.00,93.47
2970.00,93.42
2969.00,93.36
2968.00,93.30
2967.00,93.23
2966.00,93.16
2965.00,93.09
2964.00,93.03
2963.00,92.97
2962.00,92.91
2961.00,92.85
2960.00,92.79
2959.00,92.73
2958.00,92.67
2957.00,92.62
2956.00,92.56
2955.00,92.51
2954.00,92.45
2953.00,92.39
2952.00,92.33
2951.00,92.26
2950.00,92.18
2949.00,92.10
2948.00,92.01
2947.00,91.90
2946.00,91.77
2945.00,91.63
2944.00,91.48
2943.00,91.31
2942.00,91.12
2941.00,90.92
2940.00,90.71
2939.00,90.48
2938.00,90.23
2937.00,89.97
2936.00,89.70
2935.00,89.42
2934.00,89.14
2933.00,88.86
2932.00,88.58
2931.00,88.31
2930.00,88.05
2929.00,87.81
2928.00,87.59
2927.00,87.39
2926.00,87.22
2925.00,87.08
2924.00,86.96
2923.00,86.88
2922.00,86.83
2921.00,86.81
2920.00,86.82
2919.00,86.86
2918.00,86.93
2917.00,87.02
2916.00,87.13
2915.00,87.25
2914.00,87.39
2913.00,87.54
2912.00,87.70
2911.00,87.87
2910.00,88.04
2909.00,88.22
2908.00,88.40
2907.00,88.58
2906.00,88.77
2905.00,88.96
2904.00,89.15
2903.00,89.34
2902.00,89.53
2901.00,89.72
2900.00,89.91
2899.00,90.09
2898.00,90.26
2897.00,90.42
2896.00,90.57
2895.00,90.71
2894.00,90.84
2893.00,90.95
2892.00,91.06
2891.00,91.16
2890.00,91.26
2889.00,91.34
2888.00,91.42
2887.00,91.50
2886.00,91.57
2885.00,91.64
2884.00,91.71
2883.00,91.77
2882.00,91.83
2881.00,91.89
2880.00,91.94
2879.00,91.99
2878.00,92.03
2877.00,92.07
2876.00,92.11
2875.00,92.14
2874.00,92.16
2873.00,92.18
2872.00,92.19
2871.00,92.19
2870.00,92.19
2869.00,92.19
2868.00,92.18
2867.00,92.17
2866.00,92.15
2865.00,92.12
2864.00,92.08
2863.00,92.04
2862.00,91.99
2861.00,91.93
2860.00,91.87
2859.00,91.79
2858.00,91.71
2857.00,91.63
2856.00,91.54
2855.00,91.46
2854.00,91.37
2853.00,91.30
2852.00,91.24
2851.00,91.19
2850.00,91.16
2849.00,91.16
2848.00,91.18
2847.00,91.23
2846.00,91.31
2845.00,91.42
2844.00,91.55
2843.00,91.70
2842.00,91.87
2841.00,92.05
2840.00,92.24
2839.00,92.42
2838.00,92.59
2837.00,92.75
2836.00,92.90
2835.00,93.03
2834.00,93.15
2833.00,93.24
2832.00,93.33
2831.00,93.40
2830.00,93.46
2829.00,93.51
2828.00,93.56
2827.00,93.60
2826.00,93.63
2825.00,93.66
2824.00,93.69
2823.00,93.71
2822.00,93.73
2821.00,93.75
2820.00,93.77
2819.00,93.78
2818.00,93.80
2817.00,93.81
2816.00,93.82
2815.00,93.83
2814.00,93.84
2813.00,93.85
2812.00,93.86
2811.00,93.87
2810.00,93.88
2809.00,93.89
2808.00,93.90
2807.00,93.91
2806.00,93.93
2805.00,93.94
2804.00,93.95
2803.00,93.96
2802.00,93.97
2801.00,93.98
2800.00,93.99
2799.00,94.00
2798.00,94.02
2797.00,94.03
2796.00,94.04
2795.00,94.05
2794.00,94.05
2793.00,94.06
2792.00,94.07
2791.00,94.07
2790.00,94.08
2789.00,94.09
2788.00,94.09
2787.00,94.10
2786.00,94.10
2785.00,94.11
2784.00,94.11
2783.00,94.11
2782.00,94.12
2781.00,94.12
2780.00,94.12
2779.00,94.13
2778.00,94.13
2777.00,94.14
2776.00,94.15
2775.00,94.16
2774.00,94.17
2773.00,94.17
2772.00,94.18
2771.00,94.18
2770.00,94.19
2769.00,94.19
2768.00,94.20
2767.00,94.20
2766.00,94.21
2765.00,94.21
2764.00,94.22
2763.00,94.22
2762.00,94.22
2761.00,94.23
2760.00,94.23
2759.00,94.24
2758.00,94.24
2757.00,94.24
2756.00,94.25
2755.00,94.25
2754.00,94.25
2753.00,94.26
2752.00,94.26
2751.00,94.26
2750.00,94.26
2749.00,94.27
2748.00,94.27
2747.00,94.27
2746.00,94.27
2745.00,94.27
2744.00,94.27
2743.00,94.27
2742.00,94.28
2741.00,94.28
2740.00,94.28
2739.00,94.28
2738.00,94.28
2737.00,94.27
2736.00,94.27
2735.00,94.27
2734.00,94.27
2733.00,94.27
2732.00,94.27
2731.00,94.27
2730.00,94.27
2729.00,94.27
2728.00,94.27
2727.00,94.27
2726.00,94.27
2725.00,94.27
2724.00,94.27
2723.00,94.28
2722.00,94.28
2721.00,94.29
2720.00,94.29
2719.00,94.29
2718.00,94.29
2717.00,94.30
2716.00,94.30
2715.00,94.30
2714.00,94.30
2713.00,94.30
2712.00,94.30
2711.00,94.30
2710.00,94.30
2709.00,94.31
2708.00,94.31
2707.00,94.31
2706.00,94.31
2705.00,94.31
2704.00,94.32
2703.00,94.32
2702.00,94.32
2701.00,94.32
2700.00,94.32
2699.00,94.32
2698.00,94.33
2697.00,94.33
2696.00,94.33
2695.00,94.33
2694.00,94.33
2693.00,94.33
2692.00,94.33
2691.00,94.33
2690.00,94.33
2689.00,94.34
2688.00,94.34
2687.00,94.34
2686.00,94.34
2685.00,94.34
2684.00,94.33
2683.00,94.34
2682.00,94.34
2681.00,94.34
2680.00,94.34
2679.00,94.34
2678.00,94.35
2677.00,94.35
2676.00,94.35
2675.00,94.34
2674.00,94.34
2673.00,94.34
2672.00,94.34
2671.00,94.34
2670.00,94.34
2669.00,94.35
2668.00,94.35
2667.00,94.35
2666.00,94.34
2665.00,94.34
2664.00,94.33
2663.00,94.32
2662.00,94.31
2661.00,94.30
2660.00,94.29
2659.00,94.28
2658.00,94.27
2657.00,94.26
2656.00,94.26
2655.00,94.25
2654.00,94.25
2653.00,94.24
2652.00,94.23
2651.00,94.23
2650.00,94.22
2649.00,94.22
2648.00,94.22
2647.00,94.22
2646.00,94.21
2645.00,94.21
2644.00,94.21
2643.00,94.20
2642.00,94.19
2641.00,94.19
2640.00,94.19
2639.00,94.18
2638.00,94.17
2637.00,94.17
2636.00,94.16
2635.00,94.15
2634.00,94.14
2633.00,94.14
2632.00,94.13
2631.00,94.13
2630.00,94.13
2629.00,94.13
2628.00,94.14
2627.00,94.15
2626.00,94.15
2625.00,94.16
2624.00,94.16
2623.00,94.17
2622.00,94.17
2621.00,94.18
2620.00,94.17
2619.00,94.17
2618.00,94.17
2617.00,94.17
2616.00,94.17
2615.00,94.17
2614.00,94.17
2613.00,94.16
2612.00,94.16
2611.00,94.15
2610.00,94.15
2609.00,94.15
2608.00,94.14
2607.00,94.14
2606.00,94.13
2605.00,94.13
2604.00,94.13
2603.00,94.13
2602.00,94.13
2601.00,94.13
2600.00,94.13
2599.00,94.13
2598.00,94.13
2597.00,94.14
2596.00,94.15
2595.00,94.15
2594.00,94.16
2593.00,94.16
2592.00,94.17
2591.00,94.17
2590.00,94.17
2589.00,94.17
2588.00,94.16
2587.00,94.16
2586.00,94.15
2585.00,94.15
2584.00,94.15
2583.00,94.15
2582.00,94.14
2581.00,94.14
2580.00,94.14
2579.00,94.14
2578.00,94.14
2577.00,94.14
2576.00,94.15
2575.00,94.15
2574.00,94.16
2573.00,94.16
2572.00,94.17
2571.00,94.17
2570.00,94.17
2569.00,94.18
2568.00,94.18
2567.00,94.19
2566.00,94.19
2565.00,94.19
2564.00,94.19
2563.00,94.18
2562.00,94.18
2561.00,94.18
2560.00,94.18
2559.00,94.18
2558.00,94.17
2557.00,94.17
2556.00,94.17
2555.00,94.18
2554.00,94.18
2553.00,94.18
2552.00,94.18
2551.00,94.18
2550.00,94.18
2549.00,94.18
2548.00,94.18
2547.00,94.18
2546.00,94.18
2545.00,94.18
2544.00,94.18
2543.00,94.19
2542.00,94.19
2541.00,94.19
2540.00,94.20
2539.00,94.20
2538.00,94.20
2537.00,94.20
2536.00,94.20
2535.00,94.20
2534.00,94.20
2533.00,94.20
2532.00,94.20
2531.00,94.20
2530.00,94.20
2529.00,94.20
2528.00,94.20
2527.00,94.20
2526.00,94.20
2525.00,94.20
2524.00,94.20
2523.00,94.20
2522.00,94.20
2521.00,94.20
2520.00,94.20
2519.00,94.20
2518.00,94.20
2517.00,94.20
2516.00,94.20
2515.00,94.20
2514.00,94.20
2513.00,94.20
2512.00,94.20
2511.00,94.20
2510.00,94.20
2509.00,94.20
2508.00,94.21
2507.00,94.21
2506.00,94.20
2505.00,94.20
2504.00,94.21
2503.00,94.21
2502.00,94.22
2501.00,94.22
2500.00,94.22
2499.00,94.22
2498.00,94.22
2497.00,94.22
2496.00,94.22
2495.00,94.23
2494.00,94.23
2493.00,94.23
2492.00,94.23
2491.00,94.23
2490.00,94.23
2489.00,94.23
2488.00,94.23
2487.00,94.23
2486.00,94.23
2485.00,94.23
2484.00,94.23
2483.00,94.23
2482.00,94.23
2481.00,94.24
2480.00,94.24
2479.00,94.25
2478.00,94.25
2477.00,94.25
2476.00,94.26
2475.00,94.26
2474.00,94.26
2473.00,94.26
2472.00,94.26
2471.00,94.27
2470.00,94.27
2469.00,94.26
2468.00,94.26
2467.00,94.26
2466.00,94.26
2465.00,94.26
2464.00,94.26
2463.00,94.26
2462.00,94.26
2461.00,94.26
2460.00,94.26
2459.00,94.25
2458.00,94.25
2457.00,94.25
2456.00,94.24
2455.00,94.24
2454.00,94.23
2453.00,94.23
2452.00,94.23
2451.00,94.24
2450.00,94.24
2449.00,94.24
2448.00,94.25
2447.00,94.25
2446.00,94.25
2445.00,94.26
2444.00,94.26
2443.00,94.26
2442.00,94.26
2441.00,94.27
2440.00,94.27
2439.00,94.27
2438.00,94.27
2437.00,94.28
2436.00,94.28
2435.00,94.29
2434.00,94.29
2433.00,94.30
2432.00,94.30
2431.00,94.30
2430.00,94.30
2429.00,94.30
2428.00,94.30
2427.00,94.31
2426.00,94.31
2425.00,94.31
2424.00,94.32
2423.00,94.32
2422.00,94.32
2421.00,94.32
2420.00,94.32
2419.00,94.32
2418.00,94.33
2417.00,94.33
2416.00,94.33
2415.00,94.33
2414.00,94.33
2413.00,94.33
2412.00,94.33
2411.00,94.34
2410.00,94.34
2409.00,94.34
2408.00,94.35
2407.00,94.36
2406.00,94.36
2405.00,94.37
2404.00,94.37
2403.00,94.37
2402.00,94.38
2401.00,94.38
2400.00,94.39
2399.00,94.39
2398.00,94.39
2397.00,94.39
2396.00,94.39
2395.00,94.39
2394.00,94.40
2393.00,94.40
2392.00,94.41
2391.00,94.41
2390.00,94.41
2389.00,94.41
2388.00,94.41
2387.00,94.41
2386.00,94.41
2385.00,94.41
2384.00,94.42
2383.00,94.42
2382.00,94.43
2381.00,94.43
2380.00,94.43
2379.00,94.43
2378.00,94.43
2377.00,94.43
2376.00,94.43
2375.00,94.43
2374.00,94.44
2373.00,94.45
2372.00,94.45
2371.00,94.45
2370.00,94.46
2369.00,94.47
2368.00,94.48
2367.00,94.48
2366.00,94.48
2365.00,94.47
2364.00,94.46
2363.00,94.44
2362.00,94.43
2361.00,94.42
2360.00,94.41
2359.00,94.42
2358.00,94.43
2357.00,94.43
2356.00,94.41
2355.00,94.40
2354.00,94.39
2353.00,94.40
2352.00,94.42
2351.00,94.43
2350.00,94.41
2349.00,94.39
2348.00,94.36
2347.00,94.35
2346.00,94.37
2345.00,94.39
2344.00,94.40
2343.00,94.39
2342.00,94.36
2341.00,94.33
2340.00,94.31
2339.00,94.29
2338.00,94.28
2337.00,94.28
2336.00,94.28
2335.00,94.29
2334.00,94.30
2333.00,94.31
2332.00,94.32
2331.00,94.32
2330.00,94.33
2329.00,94.33
2328.00,94.31
2327.00,94.27
2326.00,94.21
2325.00,94.13
2324.00,94.07
2323.00,94.04
2322.00,94.04
2321.00,94.06
2320.00,94.07
2319.00,94.07
2318.00,94.08
2317.00,94.08
2316.00,94.08
2315.00,94.08
2314.00,94.07
2313.00,94.07
2312.00,94.07
2311.00,94.07
2310.00,94.08
2309.00,94.08
2308.00,94.09
2307.00,94.10
2306.00,94.10
2305.00,94.10
2304.00,94.10
2303.00,94.09
2302.00,94.10
2301.00,94.10
2300.00,94.10
2299.00,94.10
2298.00,94.10
2297.00,94.09
2296.00,94.09
2295.00,94.08
2294.00,94.07
2293.00,94.06
2292.00,94.04
2291.00,94.03
2290.00,94.01
2289.00,94.00
2288.00,93.98
2287.00,93.97
2286.00,93.96
2285.00,93.95
2284.00,93.95
2283.00,93.95
2282.00,93.96
2281.00,93.97
2280.00,93.98
2279.00,93.99
2278.00,94.00
2277.00,94.00
2276.00,94.00
2275.00,94.01
2274.00,94.01
2273.00,94.01
2272.00,94.01
2271.00,94.00
2270.00,94.00
2269.00,94.01
2268.00,94.01
2267.00,94.02
2266.00,94.02
2265.00,94.01
2264.00,94.00
2263.00,93.99
2262.00,93.98
2261.00,93.98
2260.00,93.97
2259.00,93.97
2258.00,93.97
2257.00,93.98
2256.00,93.99
2255.00,94.00
2254.00,94.01
2253.00,94.01
2252.00,94.00
2251.00,93.99
2250.00,93.99
2249.00,93.98
2248.00,93.98
2247.00,93.97
2246.00,93.97
2245.00,93.98
2244.00,93.98
2243.00,93.98
2242.00,93.97
2241.00,93.97
2240.00,93.97
2239.00,93.97
2238.00,93.96
2237.00,93.96
2236.00,93.96
2235.00,93.96
2234.00,93.96
2233.00,93.95
2232.00,93.94
2231.00,93.93
2230.00,93.93
2229.00,93.93
2228.00,93.93
2227.00,93.93
2226.00,93.92
2225.00,93.92
2224.00,93.92
2223.00,93.92
2222.00,93.92
2221.00,93.92
2220.00,93.91
2219.00,93.91
2218.00,93.92
2217.00,93.93
2216.00,93.95
2215.00,93.96
2214.00,93.95
2213.00,93.94
2212.00,93.93
2211.00,93.92
2210.00,93.91
2209.00,93.91
2208.00,93.91
2207.00,93.90
2206.00,93.90
2205.00,93.89
2204.00,93.89
2203.00,93.89
2202.00,93.89
2201.00,93.89
2200.00,93.89
2199.00,93.88
2198.00,93.87
2197.00,93.86
2196.00,93.86
2195.00,93.85
2194.00,93.84
2193.00,93.83
2192.00,93.82
2191.00,93.82
2190.00,93.81
2189.00,93.80
2188.00,93.78
2187.00,93.76
2186.00,93.74
2185.00,93.73
2184.00,93.74
2183.00,93.78
2182.00,93.82
2181.00,93.86
2180.00,93.87
2179.00,93.86
2178.00,93.85
2177.00,93.85
2176.00,93.86
2175.00,93.87
2174.00,93.88
2173.00,93.87
2172.00,93.83
2171.00,93.78
2170.00,93.72
2169.00,93.66
2168.00,93.62
2167.00,93.59
2166.00,93.58
2165.00,93.56
2164.00,93.53
2163.00,93.49
2162.00,93.46
2161.00,93.48
2160.00,93.62
2159.00,93.84
2158.00,94.09
2157.00,94.27
2156.00,94.35
2155.00,94.35
2154.00,94.32
2153.00,94.29
2152.00,94.26
2151.00,94.24
2150.00,94.22
2149.00,94.21
2148.00,94.20
2147.00,94.19
2146.00,94.19
2145.00,94.20
2144.00,94.21
2143.00,94.23
2142.00,94.24
2141.00,94.25
2140.00,94.26
2139.00,94.26
2138.00,94.26
2137.00,94.27
2136.00,94.30
2135.00,94.35
2134.00,94.41
2133.00,94.44
2132.00,94.45
2131.00,94.44
2130.00,94.41
2129.00,94.39
2128.00,94.37
2127.00,94.35
2126.00,94.34
2125.00,94.32
2124.00,94.29
2123.00,94.27
2122.00,94.26
2121.00,94.25
2120.00,94.24
2119.00,94.24
2118.00,94.23
2117.00,94.21
2116.00,94.18
2115.00,94.16
2114.00,94.14
2113.00,94.14
2112.00,94.14
2111.00,94.14
2110.00,94.15
2109.00,94.15
2108.00,94.15
2107.00,94.14
2106.00,94.13
2105.00,94.13
2104.00,94.13
2103.00,94.13
2102.00,94.13
2101.00,94.13
2100.00,94.13
2099.00,94.14
2098.00,94.15
2097.00,94.17
2096.00,94.20
2095.00,94.23
2094.00,94.25
2093.00,94.26
2092.00,94.25
2091.00,94.23
2090.00,94.21
2089.00,94.19
2088.00,94.17
2087.00,94.16
2086.00,94.14
2085.00,94.13
2084.00,94.12
2083.00,94.12
2082.00,94.12
2081.00,94.11
2080.00,94.11
2079.00,94.10
2078.00,94.10
2077.00,94.09
2076.00,94.08
2075.00,94.08
2074.00,94.08
2073.00,94.08
2072.00,94.08
2071.00,94.08
2070.00,94.08
2069.00,94.08
2068.00,94.09
2067.00,94.10
2066.00,94.11
2065.00,94.11
2064.00,94.11
2063.00,94.10
2062.00,94.09
2061.00,94.09
2060.00,94.08
2059.00,94.07
2058.00,94.07
2057.00,94.06
2056.00,94.06
2055.00,94.07
2054.00,94.06
2053.00,94.01
2052.00,93.94
2051.00,93.86
2050.00,93.83
2049.00,93.84
2048.00,93.87
2047.00,93.90
2046.00,93.91
2045.00,93.92
2044.00,93.91
2043.00,93.90
2042.00,93.89
2041.00,93.89
2040.00,93.88
2039.00,93.87
2038.00,93.86
2037.00,93.85
2036.00,93.85
2035.00,93.86
2034.00,93.89
2033.00,93.92
2032.00,93.95
2031.00,93.96
2030.00,93.96
2029.00,93.97
2028.00,93.96
2027.00,93.96
2026.00,93.96
2025.00,93.97
2024.00,93.98
2023.00,93.98
2022.00,93.98
2021.00,93.97
2020.00,93.97
2019.00,93.97
2018.00,93.97
2017.00,93.98
2016.00,93.98
2015.00,93.99
2014.00,93.98
2013.00,93.97
2012.00,93.97
2011.00,93.97
2010.00,93.98
2009.00,93.99
2008.00,94.03
2007.00,94.08
2006.00,94.13
2005.00,94.16
2004.00,94.16
2003.00,94.14
2002.00,94.12
2001.00,94.10
2000.00,94.07
1999.00,94.05
1998.00,94.03
1997.00,94.01
1996.00,94.00
1995.00,93.99
1994.00,93.99
1993.00,94.00
1992.00,94.01
1991.00,93.99
1990.00,93.96
1989.00,93.92
1988.00,93.89
1987.00,93.87
1986.00,93.86
1985.00,93.85
1984.00,93.83
1983.00,93.80
1982.00,93.77
1981.00,93.72
1980.00,93.69
1979.00,93.69
1978.00,93.75
1977.00,93.84
1976.00,93.92
1975.00,93.97
1974.00,93.98
1973.00,93.98
1972.00,93.96
1971.00,93.94
1970.00,93.91
1969.00,93.88
1968.00,93.85
1967.00,93.83
1966.00,93.82
1965.00,93.82
1964.00,93.80
1963.00,93.77
1962.00,93.75
1961.00,93.74
1960.00,93.75
1959.00,93.75
1958.00,93.75
1957.00,93.73
1956.00,93.69
1955.00,93.66
1954.00,93.62
1953.00,93.59
1952.00,93.56
1951.00,93.52
1950.00,93.48
1949.00,93.43
1948.00,93.38
1947.00,93.35
1946.00,93.32
1945.00,93.31
1944.00,93.31
1943.00,93.32
1942.00,93.34
1941.00,93.37
1940.00,93.40
1939.00,93.44
1938.00,93.48
1937.00,93.53
1936.00,93.59
1935.00,93.65
1934.00,93.71
1933.00,93.77
1932.00,93.83
1931.00,93.88
1930.00,93.92
1929.00,93.96
1928.00,94.00
1927.00,94.03
1926.00,94.07
1925.00,94.11
1924.00,94.15
1923.00,94.17
1922.00,94.18
1921.00,94.18
1920.00,94.18
1919.00,94.20
1918.00,94.22
1917.00,94.24
1916.00,94.25
1915.00,94.25
1914.00,94.25
1913.00,94.25
1912.00,94.25
1911.00,94.26
1910.00,94.27
1909.00,94.28
1908.00,94.29
1907.00,94.29
1906.00,94.29
1905.00,94.29
1904.00,94.28
1903.00,94.27
1902.00,94.26
1901.00,94.25
1900.00,94.24
1899.00,94.23
1898.00,94.21
1897.00,94.19
1896.00,94.17
1895.00,94.14
1894.00,94.12
1893.00,94.10
1892.00,94.08
1891.00,94.05
1890.00,94.02
1889.00,94.00
1888.00,93.98
1887.00,93.95
1886.00,93.93
1885.00,93.92
1884.00,93.90
1883.00,93.88
1882.00,93.86
1881.00,93.84
1880.00,93.83
1879.00,93.81
1878.00,93.80
1877.00,93.79
1876.00,93.77
1875.00,93.76
1874.00,93.75
1873.00,93.74
1872.00,93.73
1871.00,93.73
1870.00,93.73
1869.00,93.74
1868.00,93.77
1867.00,93.79
1866.00,93.81
1865.00,93.83
1864.00,93.86
1863.00,93.90
1862.00,93.94
1861.00,93.99
1860.00,94.04
1859.00,94.09
1858.00,94.14
1857.00,94.18
1856.00,94.21
1855.00,94.25
1854.00,94.28
1853.00,94.31
1852.00,94.33
1851.00,94.36
1850.00,94.38
1849.00,94.40
1848.00,94.42
1847.00,94.44
1846.00,94.45
1845.00,94.46
1844.00,94.47
1843.00,94.49
1842.00,94.49
1841.00,94.49
1840.00,94.49
1839.00,94.50
1838.00,94.50
1837.00,94.50
1836.00,94.51
1835.00,94.50
1834.00,94.49
1833.00,94.48
1832.00,94.47
1831.00,94.46
1830.00,94.44
1829.00,94.43
1828.00,94.42
1827.00,94.40
1826.00,94.38
1825.00,94.36
1824.00,94.34
1823.00,94.31
1822.00,94.28
1821.00,94.26
1820.00,94.24
1819.00,94.24
1818.00,94.23
1817.00,94.23
1816.00,94.21
1815.00,94.18
1814.00,94.15
1813.00,94.11
1812.00,94.07
1811.00,94.03
1810.00,93.99
1809.00,93.96
1808.00,93.93
1807.00,93.91
1806.00,93.88
1805.00,93.86
1804.00,93.85
1803.00,93.85
1802.00,93.86
1801.00,93.88
1800.00,93.90
1799.00,93.93
1798.00,93.96
1797.00,93.99
1796.00,94.03
1795.00,94.08
1794.00,94.12
1793.00,94.18
1792.00,94.23
1791.00,94.29
1790.00,94.33
1789.00,94.36
1788.00,94.39
1787.00,94.41
1786.00,94.44
1785.00,94.47
1784.00,94.49
1783.00,94.50
1782.00,94.50
1781.00,94.50
1780.00,94.51
1779.00,94.51
1778.00,94.51
1777.00,94.51
1776.00,94.52
1775.00,94.52
1774.00,94.53
1773.00,94.53
1772.00,94.53
1771.00,94.54
1770.00,94.54
1769.00,94.55
1768.00,94.55
1767.00,94.55
1766.00,94.54
1765.00,94.53
1764.00,94.52
1763.00,94.51
1762.00,94.50
1761.00,94.48
1760.00,94.46
1759.00,94.44
1758.00,94.41
1757.00,94.39
1756.00,94.36
1755.00,94.34
1754.00,94.32
1753.00,94.30
1752.00,94.27
1751.00,94.25
1750.00,94.24
1749.00,94.23
1748.00,94.22
1747.00,94.22
1746.00,94.21
1745.00,94.22
1744.00,94.23
1743.00,94.24
1742.00,94.25
1741.00,94.26
1740.00,94.27
1739.00,94.29
1738.00,94.31
1737.00,94.33
1736.00,94.35
1735.00,94.37
1734.00,94.40
1733.00,94.43
1732.00,94.45
1731.00,94.47
1730.00,94.48
1729.00,94.50
1728.00,94.52
1727.00,94.53
1726.00,94.53
1725.00,94.54
1724.00,94.56
1723.00,94.57
1722.00,94.59
1721.00,94.61
1720.00,94.62
1719.00,94.63
1718.00,94.65
1717.00,94.66
1716.00,94.67
1715.00,94.69
1714.00,94.70
1713.00,94.70
1712.00,94.70
1711.00,94.70
1710.00,94.70
1709.00,94.71
1708.00,94.71
1707.00,94.72
1706.00,94.72
1705.00,94.72
1704.00,94.73
1703.00,94.73
1702.00,94.74
1701.00,94.73
1700.00,94.73
1699.00,94.73
1698.00,94.72
1697.00,94.72
1696.00,94.71
1695.00,94.70
1694.00,94.70
1693.00,94.70
1692.00,94.70
1691.00,94.70
1690.00,94.70
1689.00,94.70
1688.00,94.69
1687.00,94.69
1686.00,94.69
1685.00,94.67
1684.00,94.65
1683.00,94.65
1682.00,94.65
1681.00,94.64
1680.00,94.63
1679.00,94.62
1678.00,94.61
1677.00,94.60
1676.00,94.59
1675.00,94.58
1674.00,94.57
1673.00,94.56
1672.00,94.56
1671.00,94.55
1670.00,94.55
1669.00,94.55
1668.00,94.56
1667.00,94.56
1666.00,94.56
1665.00,94.56
1664.00,94.57
1663.00,94.59
1662.00,94.61
1661.00,94.62
1660.00,94.63
1659.00,94.65
1658.00,94.66
1657.00,94.69
1656.00,94.71
1655.00,94.73
1654.00,94.73
1653.00,94.74
1652.00,94.75
1651.00,94.76
1650.00,94.77
1649.00,94.79
1648.00,94.81
1647.00,94.83
1646.00,94.84
1645.00,94.85
1644.00,94.85
1643.00,94.86
1642.00,94.87
1641.00,94.88
1640.00,94.89
1639.00,94.90
1638.00,94.91
1637.00,94.91
1636.00,94.91
1635.00,94.92
1634.00,94.92
1633.00,94.91
1632.00,94.91
1631.00,94.90
1630.00,94.90
1629.00,94.90
1628.00,94.90
1627.00,94.89
1626.00,94.88
1625.00,94.87
1624.00,94.86
1623.00,94.85
1622.00,94.84
1621.00,94.83
1620.00,94.82
1619.00,94.79
1618.00,94.75
1617.00,94.68
1616.00,94.61
1615.00,94.54
1614.00,94.47
1613.00,94.38
1612.00,94.24
1611.00,94.04
1610.00,93.75
1609.00,93.35
1608.00,92.83
1607.00,92.20
1606.00,91.49
1605.00,90.72
1604.00,89.96
1603.00,89.32
1602.00,88.92
1601.00,88.82
1600.00,89.03
1599.00,89.49
1598.00,90.10
1597.00,90.76
1596.00,91.36
1595.00,91.88
1594.00,92.30
1593.00,92.63
1592.00,92.89
1591.00,93.09
1590.00,93.23
1589.00,93.29
1588.00,93.25
1587.00,93.11
1586.00,92.90
1585.00,92.68
1584.00,92.52
1583.00,92.49
1582.00,92.63
1581.00,92.89
1580.00,93.18
1579.00,93.44
1578.00,93.67
1577.00,93.87
1576.00,94.02
1575.00,94.14
1574.00,94.22
1573.00,94.29
1572.00,94.35
1571.00,94.41
1570.00,94.48
1569.00,94.53
1568.00,94.57
1567.00,94.60
1566.00,94.62
1565.00,94.64
1564.00,94.67
1563.00,94.69
1562.00,94.71
1561.00,94.73
1560.00,94.73
1559.00,94.73
1558.00,94.74
1557.00,94.73
1556.00,94.71
1555.00,94.69
1554.00,94.67
1553.00,94.65
1552.00,94.63
1551.00,94.61
1550.00,94.59
1549.00,94.57
1548.00,94.54
1547.00,94.52
1546.00,94.50
1545.00,94.49
1544.00,94.50
1543.00,94.50
1542.00,94.50
1541.00,94.51
1540.00,94.52
1539.00,94.53
1538.00,94.54
1537.00,94.56
1536.00,94.58
1535.00,94.63
1534.00,94.68
1533.00,94.73
1532.00,94.77
1531.00,94.80
1530.00,94.82
1529.00,94.84
1528.00,94.87
1527.00,94.90
1526.00,94.92
1525.00,94.94
1524.00,94.95
1523.00,94.95
1522.00,94.95
1521.00,94.95
1520.00,94.95
1519.00,94.93
1518.00,94.91
1517.00,94.87
1516.00,94.81
1515.00,94.76
1514.00,94.72
1513.00,94.69
1512.00,94.68
1511.00,94.67
1510.00,94.68
1509.00,94.69
1508.00,94.66
1507.00,94.58
1506.00,94.47
1505.00,94.35
1504.00,94.20
1503.00,94.02
1502.00,93.78
1501.00,93.40
1500.00,92.80
1499.00,91.81
1498.00,90.21
1497.00,87.79
1496.00,84.86
1495.00,82.17
1494.00,80.28
1493.00,79.44
1492.00,79.79
1491.00,81.36
1490.00,83.70
1489.00,86.00
1488.00,87.75
1487.00,89.00
1486.00,89.92
1485.00,90.62
1484.00,91.16
1483.00,91.59
1482.00,91.93
1481.00,92.18
1480.00,92.35
1479.00,92.47
1478.00,92.56
1477.00,92.65
1476.00,92.74
1475.00,92.84
1474.00,92.96
1473.00,93.09
1472.00,93.22
1471.00,93.32
1470.00,93.38
1469.00,93.41
1468.00,93.42
1467.00,93.41
1466.00,93.38
1465.00,93.29
1464.00,93.15
1463.00,92.98
1462.00,92.77
1461.00,92.50
1460.00,92.11
1459.00,91.41
1458.00,90.00
1457.00,87.67
1456.00,85.05
1455.00,82.80
1454.00,81.02
1453.00,79.76
1452.00,79.22
1451.00,79.47
1450.00,80.27
1449.00,81.33
1448.00,82.42
1447.00,83.36
1446.00,84.14
1445.00,84.82
1444.00,85.51
1443.00,86.22
1442.00,86.90
1441.00,87.51
1440.00,88.06
1439.00,88.57
1438.00,89.11
1437.00,89.70
1436.00,90.28
1435.00,90.74
1434.00,91.10
1433.00,91.41
1432.00,91.73
1431.00,92.03
1430.00,92.30
1429.00,92.53
1428.00,92.71
1427.00,92.85
1426.00,92.96
1425.00,93.07
1424.00,93.17
1423.00,93.26
1422.00,93.33
1421.00,93.38
1420.00,93.45
1419.00,93.51
1418.00,93.56
1417.00,93.60
1416.00,93.64
1415.00,93.66
1414.00,93.68
1413.00,93.71
1412.00,93.74
1411.00,93.76
1410.00,93.79
1409.00,93.81
1408.00,93.84
1407.00,93.86
1406.00,93.88
1405.00,93.90
1404.00,93.91
1403.00,93.92
1402.00,93.92
1401.00,93.92
1400.00,93.92
1399.00,93.92
1398.00,93.91
1397.00,93.88
1396.00,93.85
1395.00,93.81
1394.00,93.75
1393.00,93.68
1392.00,93.61
1391.00,93.53
1390.00,93.43
1389.00,93.34
1388.00,93.23
1387.00,93.12
1386.00,93.01
1385.00,92.91
1384.00,92.81
1383.00,92.70
1382.00,92.57
1381.00,92.44
1380.00,92.29
1379.00,92.13
1378.00,91.98
1377.00,91.85
1376.00,91.74
1375.00,91.67
1374.00,91.63
1373.00,91.63
1372.00,91.64
1371.00,91.66
1370.00,91.68
1369.00,91.72
1368.00,91.76
1367.00,91.80
1366.00,91.84
1365.00,91.89
1364.00,91.95
1363.00,92.02
1362.00,92.09
1361.00,92.14
1360.00,92.19
1359.00,92.24
1358.00,92.29
1357.00,92.33
1356.00,92.37
1355.00,92.41
1354.00,92.44
1353.00,92.46
1352.00,92.47
1351.00,92.48
1350.00,92.49
1349.00,92.50
1348.00,92.51
1347.00,92.54
1346.00,92.57
1345.00,92.60
1344.00,92.64
1343.00,92.69
1342.00,92.73
1341.00,92.78
1340.00,92.82
1339.00,92.84
1338.00,92.84
1337.00,92.83
1336.00,92.80
1335.00,92.76
1334.00,92.70
1333.00,92.63
1332.00,92.56
1331.00,92.50
1330.00,92.45
1329.00,92.42
1328.00,92.41
1327.00,92.43
1326.00,92.46
1325.00,92.50
1324.00,92.55
1323.00,92.60
1322.00,92.64
1321.00,92.68
1320.00,92.70
1319.00,92.71
1318.00,92.71
1317.00,92.69
1316.00,92.67
1315.00,92.64
1314.00,92.62
1313.00,92.60
1312.00,92.59
1311.00,92.60
1310.00,92.61
1309.00,92.63
1308.00,92.66
1307.00,92.70
1306.00,92.74
1305.00,92.79
1304.00,92.85
1303.00,92.90
1302.00,92.95
1301.00,93.00
1300.00,93.05
1299.00,93.09
1298.00,93.12
1297.00,93.15
1296.00,93.17
1295.00,93.19
1294.00,93.21
1293.00,93.23
1292.00,93.26
1291.00,93.28
1290.00,93.31
1289.00,93.34
1288.00,93.36
1287.00,93.38
1286.00,93.40
1285.00,93.42
1284.00,93.43
1283.00,93.45
1282.00,93.47
1281.00,93.50
1280.00,93.53
1279.00,93.57
1278.00,93.61
1277.00,93.66
1276.00,93.71
1275.00,93.76
1274.00,93.81
1273.00,93.86
1272.00,93.91
1271.00,93.95
1270.00,93.99
1269.00,94.03
1268.00,94.08
1267.00,94.12
1266.00,94.16
1265.00,94.20
1264.00,94.25
1263.00,94.29
1262.00,94.33
1261.00,94.38
1260.00,94.42
1259.00,94.47
1258.00,94.52
1257.00,94.56
1256.00,94.61
1255.00,94.65
1254.00,94.69
1253.00,94.74
1252.00,94.79
1251.00,94.83
1250.00,94.87
1249.00,94.91
1248.00,94.95
1247.00,94.99
1246.00,95.02
1245.00,95.05
1244.00,95.08
1243.00,95.11
1242.00,95.13
1241.00,95.16
1240.00,95.18
1239.00,95.20
1238.00,95.21
1237.00,95.22
1236.00,95.22
1235.00,95.22
1234.00,95.22
1233.00,95.20
1232.00,95.19
1231.00,95.18
1230.00,95.16
1229.00,95.15
1228.00,95.14
1227.00,95.12
1226.00,95.10
1225.00,95.08
1224.00,95.07
1223.00,95.07
1222.00,95.07
1221.00,95.07
1220.00,95.06
1219.00,95.05
1218.00,95.03
1217.00,95.02
1216.00,94.99
1215.00,94.97
1214.00,94.94
1213.00,94.91
1212.00,94.87
1211.00,94.83
1210.00,94.79
1209.00,94.75
1208.00,94.69
1207.00,94.64
1206.00,94.57
1205.00,94.51
1204.00,94.44
1203.00,94.37
1202.00,94.31
1201.00,94.26
1200.00,94.21
1199.00,94.16
1198.00,94.12
1197.00,94.09
1196.00,94.06
1195.00,94.04
1194.00,94.02
1193.00,94.00
1192.00,93.98
1191.00,93.95
1190.00,93.92
1189.00,93.88
1188.00,93.81
1187.00,93.71
1186.00,93.58
1185.00,93.43
1184.00,93.27
1183.00,93.13
1182.00,93.04
1181.00,93.01
1180.00,93.06
1179.00,93.20
1178.00,93.38
1177.00,93.59
1176.00,93.79
1175.00,93.95
1174.00,94.08
1173.00,94.17
1172.00,94.23
1171.00,94.27
1170.00,94.30
1169.00,94.32
1168.00,94.33
1167.00,94.33
1166.00,94.32
1165.00,94.30
1164.00,94.26
1163.00,94.19
1162.00,94.09
1161.00,93.94
1160.00,93.75
1159.00,93.53
1158.00,93.28
1157.00,93.05
1156.00,92.87
1155.00,92.79
1154.00,92.81
1153.00,92.94
1152.00,93.15
1151.00,93.40
1150.00,93.66
1149.00,93.89
1148.00,94.07
1147.00,94.20
1146.00,94.30
1145.00,94.38
1144.00,94.45
1143.00,94.51
1142.00,94.57
1141.00,94.61
1140.00,94.65
1139.00,94.69
1138.00,94.71
1137.00,94.74
1136.00,94.76
1135.00,94.78
1134.00,94.80
1133.00,94.81
1132.00,94.83
1131.00,94.85
1130.00,94.86
1129.00,94.87
1128.00,94.87
1127.00,94.87
1126.00,94.86
1125.00,94.85
1124.00,94.83
1123.00,94.80
1122.00,94.76
1121.00,94.70
1120.00,94.64
1119.00,94.58
1118.00,94.52
1117.00,94.46
1116.00,94.42
1115.00,94.38
1114.00,94.34
1113.00,94.32
1112.00,94.31
1111.00,94.30
1110.00,94.30
1109.00,94.30
1108.00,94.30
1107.00,94.31
1106.00,94.31
1105.00,94.32
1104.00,94.33
1103.00,94.33
1102.00,94.31
1101.00,94.30
1100.00,94.28
1099.00,94.26
1098.00,94.23
1097.00,94.20
1096.00,94.17
1095.00,94.13
1094.00,94.09
1093.00,94.05
1092.00,94.00
1091.00,93.95
1090.00,93.89
1089.00,93.83
1088.00,93.75
1087.00,93.67
1086.00,93.57
1085.00,93.47
1084.00,93.36
1083.00,93.24
1082.00,93.11
1081.00,92.97
1080.00,92.84
1079.00,92.71
1078.00,92.58
1077.00,92.45
1076.00,92.31
1075.00,92.19
1074.00,92.08
1073.00,91.99
1072.00,91.91
1071.00,91.86
1070.00,91.83
1069.00,91.82
1068.00,91.84
1067.00,91.89
1066.00,91.98
1065.00,92.10
1064.00,92.24
1063.00,92.38
1062.00,92.53
1061.00,92.66
1060.00,92.78
1059.00,92.89
1058.00,92.99
1057.00,93.09
1056.00,93.18
1055.00,93.26
1054.00,93.34
1053.00,93.41
1052.00,93.48
1051.00,93.54
1050.00,93.59
1049.00,93.64
1048.00,93.68
1047.00,93.72
1046.00,93.76
1045.00,93.80
1044.00,93.83
1043.00,93.84
1042.00,93.82
1041.00,93.78
1040.00,93.71
1039.00,93.58
1038.00,93.36
1037.00,93.02
1036.00,92.56
1035.00,91.95
1034.00,91.24
1033.00,90.46
1032.00,89.69
1031.00,89.00
1030.00,88.47
1029.00,88.14
1028.00,88.05
1027.00,88.19
1026.00,88.52
1025.00,88.97
1024.00,89.44
1023.00,89.89
1022.00,90.29
1021.00,90.63
1020.00,90.92
1019.00,91.18
1018.00,91.41
1017.00,91.61
1016.00,91.80
1015.00,91.97
1014.00,92.14
1013.00,92.28
1012.00,92.41
1011.00,92.53
1010.00,92.62
1009.00,92.68
1008.00,92.70
1007.00,92.68
1006.00,92.63
1005.00,92.57
1004.00,92.51
1003.00,92.50
1002.00,92.56
1001.00,92.69
1000.00,92.86
999.00,93.04
998.00,93.19
997.00,93.31
996.00,93.40
995.00,93.46
994.00,93.49
993.00,93.51
992.00,93.51
991.00,93.50
990.00,93.48
989.00,93.44
988.00,93.39
987.00,93.32
986.00,93.23
985.00,93.15
984.00,93.07
983.00,93.01
982.00,92.97
981.00,92.95
980.00,92.96
979.00,92.99
978.00,93.04
977.00,93.10
976.00,93.17
975.00,93.24
974.00,93.28
973.00,93.30
972.00,93.28
971.00,93.23
970.00,93.14
969.00,93.04
968.00,92.93
967.00,92.83
966.00,92.75
965.00,92.70
964.00,92.70
963.00,92.74
962.00,92.83
961.00,92.96
960.00,93.10
959.00,93.24
958.00,93.38
957.00,93.50
956.00,93.59
955.00,93.66
954.00,93.70
953.00,93.73
952.00,93.74
951.00,93.74
950.00,93.73
949.00,93.71
948.00,93.69
947.00,93.66
946.00,93.63
945.00,93.62
944.00,93.61
943.00,93.62
942.00,93.64
941.00,93.67
940.00,93.72
939.00,93.77
938.00,93.83
937.00,93.90
936.00,93.97
935.00,94.04
934.00,94.09
933.00,94.12
932.00,94.16
931.00,94.19
930.00,94.22
929.00,94.25
928.00,94.26
927.00,94.27
926.00,94.26
925.00,94.24
924.00,94.22
923.00,94.18
922.00,94.13
921.00,94.06
920.00,93.98
919.00,93.87
918.00,93.73
917.00,93.55
916.00,93.33
915.00,93.06
914.00,92.76
913.00,92.42
912.00,92.07
911.00,91.72
910.00,91.41
909.00,91.15
908.00,90.97
907.00,90.88
906.00,90.89
905.00,91.00
904.00,91.20
903.00,91.48
902.00,91.81
901.00,92.16
900.00,92.51
899.00,92.84
898.00,93.13
897.00,93.36
896.00,93.55
895.00,93.69
894.00,93.80
893.00,93.89
892.00,93.97
891.00,94.03
890.00,94.08
889.00,94.12
888.00,94.16
887.00,94.19
886.00,94.21
885.00,94.22
884.00,94.24
883.00,94.26
882.00,94.28
881.00,94.31
880.00,94.34
879.00,94.36
878.00,94.39
877.00,94.42
876.00,94.45
875.00,94.47
874.00,94.49
873.00,94.51
872.00,94.53
871.00,94.56
870.00,94.59
869.00,94.63
868.00,94.66
867.00,94.69
866.00,94.71
865.00,94.73
864.00,94.74
863.00,94.76
862.00,94.78
861.00,94.79
860.00,94.79
859.00,94.78
858.00,94.76
857.00,94.74
856.00,94.72
855.00,94.69
854.00,94.64
853.00,94.58
852.00,94.50
851.00,94.39
850.00,94.26
849.00,94.12
848.00,93.97
847.00,93.82
846.00,93.67
845.00,93.55
844.00,93.46
843.00,93.39
842.00,93.37
841.00,93.38
840.00,93.45
839.00,93.55
838.00,93.68
837.00,93.83
836.00,94.00
835.00,94.18
834.00,94.34
833.00,94.48
832.00,94.60
831.00,94.69
830.00,94.74
829.00,94.78
828.00,94.81
827.00,94.84
826.00,94.84
825.00,94.83
824.00,94.80
823.00,94.76
822.00,94.72
821.00,94.68
820.00,94.65
819.00,94.62
818.00,94.59
817.00,94.58
816.00,94.60
815.00,94.64
814.00,94.71
813.00,94.78
812.00,94.84
811.00,94.91
810.00,94.97
809.00,95.02
808.00,95.08
807.00,95.12
806.00,95.16
805.00,95.19
804.00,95.22
803.00,95.24
802.00,95.24
801.00,95.25
800.00,95.25
799.00,95.24
798.00,95.21
797.00,95.16
796.00,95.10
795.00,95.02
794.00,94.93
793.00,94.82
792.00,94.71
791.00,94.58
790.00,94.43
789.00,94.27
788.00,94.11
787.00,93.94
786.00,93.76
785.00,93.57
784.00,93.36
783.00,93.13
782.00,92.86
781.00,92.54
780.00,92.17
779.00,91.75
778.00,91.28
777.00,90.76
776.00,90.17
775.00,89.52
774.00,88.81
773.00,88.04
772.00,87.21
771.00,86.30
770.00,85.30
769.00,84.24
768.00,83.11
767.00,81.95
766.00,80.77
765.00,79.57
764.00,78.37
763.00,77.22
762.00,76.14
761.00,75.18
760.00,74.37
759.00,73.71
758.00,73.23
757.00,72.91
756.00,72.73
755.00,72.66
754.00,72.67
753.00,72.73
752.00,72.83
751.00,72.97
750.00,73.16
749.00,73.43
748.00,73.80
747.00,74.31
746.00,75.00
745.00,75.86
744.00,76.85
743.00,77.93
742.00,79.04
741.00,80.14
740.00,81.23
739.00,82.30
738.00,83.38
737.00,84.46
736.00,85.55
735.00,86.62
734.00,87.65
733.00,88.59
732.00,89.42
731.00,90.12
730.00,90.72
729.00,91.21
728.00,91.63
727.00,91.98
726.00,92.27
725.00,92.54
724.00,92.80
723.00,93.07
722.00,93.34
721.00,93.58
720.00,93.77
719.00,93.90
718.00,93.96
717.00,93.95
716.00,93.85
715.00,93.64
714.00,93.29
713.00,92.76
712.00,91.96
711.00,90.82
710.00,89.25
709.00,87.18
708.00,84.58
707.00,81.45
706.00,77.83
705.00,73.77
704.00,69.36
703.00,64.68
702.00,59.87
701.00,55.04
700.00,50.36
699.00,46.04
698.00,42.38
697.00,39.79
696.00,38.71
695.00,39.45
694.00,42.00
693.00,45.99
692.00,50.81
691.00,55.78
690.00,60.42
689.00,64.45
688.00,67.81
687.00,70.54
686.00,72.76
685.00,74.58
684.00,76.10
683.00,77.38
682.00,78.47
681.00,79.40
680.00,80.19
679.00,80.89
678.00,81.51
677.00,82.06
676.00,82.54
675.00,82.97
674.00,83.38
673.00,83.75
672.00,84.08
671.00,84.36
670.00,84.62
669.00,84.95
668.00,85.37
667.00,85.72
666.00,85.95
665.00,86.17
664.00,86.41
663.00,86.68
662.00,86.95
661.00,87.20
660.00,87.44
659.00,87.68
658.00,87.90
657.00,88.12
656.00,88.33
655.00,88.52
654.00,88.70
653.00,88.89
652.00,89.07
651.00,89.24
650.00,89.41
