Created as New Dataset,PU (polyurethane) GF
cm-1,%T
4000.00,99.76
3999.00,99.76
3998.00,99.76
3997.00,99.76
3996.00,99.76
3995.00,99.76
3994.00,99.76
3993.00,99.76
3992.00,99.76
3991.00,99.76
3990.00,99.76
3989.00,99.76
3988.00,99.76
3987.00,99.76
3986.00,99.75
3985.00,99.76
3984.00,99.76
3983.00,99.76
3982.00,99.75
3981.00,99.75
3980.00,99.75
3979.00,99.75
3978.00,99.76
3977.00,99.76
3976.00,99.76
3975.00,99.76
3974.00,99.76
3973.00,99.76
3972.00,99.76
3971.00,99.76
3970.00,99.76
3969.00,99.76
3968.00,99.77
3967.00,99.77
3966.00,99.77
3965.00,99.77
3964.00,99.77
3963.00,99.77
3962.00,99.77
3961.00,99.77
3960.00,99.77
3959.00,99.78
3958.00,99.78
3957.00,99.78
3956.00,99.78
3955.00,99.78
3954.00,99.78
3953.00,99.78
3952.00,99.78
3951.00,99.78
3950.00,99.78
3949.00,99.78
3948.00,99.78
3947.00,99.78
3946.00,99.78
3945.00,99.79
3944.00,99.79
3943.00,99.79
3942.00,99.79
3941.00,99.79
3940.00,99.80
3939.00,99.80
3938.00,99.80
3937.00,99.80
3936.00,99.80
3935.00,99.80
3934.00,99.80
3933.00,99.80
3932.00,99.80
3931.00,99.80
3930.00,99.80
3929.00,99.80
3928.00,99.80
3927.00,99.80
3926.00,99.80
3925.00,99.80
3924.00,99.80
3923.00,99.80
3922.00,99.80
3921.00,99.80
3920.00,99.81
3919.00,99.81
3918.00,99.81
3917.00,99.81
3916.00,99.81
3915.00,99.81
3914.00,99.81
3913.00,99.81
3912.00,99.81
3911.00,99.81
3910.00,99.82
3909.00,99.82
3908.00,99.82
3907.00,99.82
3906.00,99.82
3905.00,99.82
3904.00,99.81
3903.00,99.81
3902.00,99.80
3901.00,99.80
3900.00,99.80
3899.00,99.81
3898.00,99.81
3897.00,99.82
3896.00,99.82
3895.00,99.82
3894.00,99.82
3893.00,99.82
3892.00,99.82
3891.00,99.82
3890.00,99.82
3889.00,99.82
3888.00,99.82
3887.00,99.82
3886.00,99.82
3885.00,99.82
3884.00,99.82
3883.00,99.81
3882.00,99.81
3881.00,99.81
3880.00,99.81
3879.00,99.82
3878.00,99.82
3877.00,99.81
3876.00,99.81
3875.00,99.82
3874.00,99.83
3873.00,99.83
3872.00,99.83
3871.00,99.83
3870.00,99.83
3869.00,99.83
3868.00,99.83
3867.00,99.83
3866.00,99.82
3865.00,99.83
3864.00,99.83
3863.00,99.83
3862.00,99.83
3861.00,99.83
3860.00,99.83
3859.00,99.83
3858.00,99.83
3857.00,99.84
3856.00,99.84
3855.00,99.84
3854.00,99.83
3853.00,99.84
3852.00,99.84
3851.00,99.83
3850.00,99.83
3849.00,99.83
3848.00,99.82
3847.00,99.82
3846.00,99.82
3845.00,99.82
3844.00,99.82
3843.00,99.83
3842.00,99.83
3841.00,99.83
3840.00,99.83
3839.00,99.83
3838.00,99.83
3837.00,99.83
3836.00,99.83
3835.00,99.82
3834.00,99.82
3833.00,99.82
3832.00,99.82
3831.00,99.82
3830.00,99.82
3829.00,99.82
3828.00,99.82
3827.00,99.83
3826.00,99.83
3825.00,99.83
3824.00,99.83
3823.00,99.83
3822.00,99.83
3821.00,99.83
3820.00,99.83
3819.00,99.83
3818.00,99.83
3817.00,99.82
3816.00,99.83
3815.00,99.83
3814.00,99.83
3813.00,99.83
3812.00,99.82
3811.00,99.83
3810.00,99.83
3809.00,99.83
3808.00,99.83
3807.00,99.84
3806.00,99.84
3805.00,99.84
3804.00,99.84
3803.00,99.84
3802.00,99.84
3801.00,99.84
3800.00,99.84
3799.00,99.84
3798.00,99.83
3797.00,99.83
3796.00,99.83
3795.00,99.83
3794.00,99.84
3793.00,99.84
3792.00,99.84
3791.00,99.84
3790.00,99.84
3789.00,99.84
3788.00,99.84
3787.00,99.84
3786.00,99.84
3785.00,99.84
3784.00,99.84
3783.00,99.84
3782.00,99.83
3781.00,99.83
3780.00,99.83
3779.00,99.83
3778.00,99.83
3777.00,99.84
3776.00,99.84
3775.00,99.84
3774.00,99.84
3773.00,99.84
3772.00,99.84
3771.00,99.84
3770.00,99.84
3769.00,99.84
3768.00,99.84
3767.00,99.84
3766.00,99.83
3765.00,99.83
3764.00,99.83
3763.00,99.83
3762.00,99.83
3761.00,99.84
3760.00,99.84
3759.00,99.84
3758.00,99.84
3757.00,99.84
3756.00,99.85
3755.00,99.85
3754.00,99.85
3753.00,99.86
3752.00,99.86
3751.00,99.86
3750.00,99.86
3749.00,99.86
3748.00,99.86
3747.00,99.86
3746.00,99.85
3745.00,99.85
3744.00,99.85
3743.00,99.85
3742.00,99.84
3741.00,99.83
3740.00,99.83
3739.00,99.83
3738.00,99.83
3737.00,99.84
3736.00,99.84
3735.00,99.84
3734.00,99.84
3733.00,99.84
3732.00,99.84
3731.00,99.84
3730.00,99.84
3729.00,99.84
3728.00,99.84
3727.00,99.84
3726.00,99.84
3725.00,99.84
3724.00,99.84
3723.00,99.84
3722.00,99.84
3721.00,99.85
3720.00,99.85
3719.00,99.85
3718.00,99.85
3717.00,99.85
3716.00,99.85
3715.00,99.85
3714.00,99.84
3713.00,99.84
3712.00,99.84
3711.00,99.83
3710.00,99.83
3709.00,99.82
3708.00,99.82
3707.00,99.82
3706.00,99.82
3705.00,99.82
3704.00,99.81
3703.00,99.80
3702.00,99.80
3701.00,99.79
3700.00,99.79
3699.00,99.79
3698.00,99.78
3697.00,99.78
3696.00,99.78
3695.00,99.79
3694.00,99.78
3693.00,99.78
3692.00,99.78
3691.00,99.77
3690.00,99.77
3689.00,99.76
3688.00,99.75
3687.00,99.75
3686.00,99.74
3685.00,99.74
3684.00,99.74
3683.00,99.74
3682.00,99.74
3681.00,99.74
3680.00,99.74
3679.00,99.74
3678.00,99.74
3677.00,99.73
3676.00,99.72
3675.00,99.72
3674.00,99.72
3673.00,99.71
3672.00,99.70
3671.00,99.70
3670.00,99.70
3669.00,99.70
3668.00,99.70
3667.00,99.70
3666.00,99.70
3665.00,99.69
3664.00,99.69
3663.00,99.69
3662.00,99.68
3661.00,99.68
3660.00,99.68
3659.00,99.67
3658.00,99.67
3657.00,99.66
3656.00,99.66
3655.00,99.66
3654.00,99.66
3653.00,99.66
3652.00,99.65
3651.00,99.64
3650.00,99.63
3649.00,99.62
3648.00,99.61
3647.00,99.60
3646.00,99.59
3645.00,99.59
3644.00,99.58
3643.00,99.58
3642.00,99.58
3641.00,99.57
3640.00,99.57
3639.00,99.57
3638.00,99.57
3637.00,99.57
3636.00,99.57
3635.00,99.57
3634.00,99.56
3633.00,99.56
3632.00,99.55
3631.00,99.54
3630.00,99.54
3629.00,99.53
3628.00,99.53
3627.00,99.53
3626.00,99.52
3625.00,99.52
3624.00,99.51
3623.00,99.51
3622.00,99.50
3621.00,99.50
3620.00,99.48
3619.00,99.47
3618.00,99.46
3617.00,99.45
3616.00,99.45
3615.00,99.44
3614.00,99.43
3613.00,99.42
3612.00,99.41
3611.00,99.40
3610.00,99.39
3609.00,99.39
3608.00,99.38
3607.00,99.37
3606.00,99.36
3605.00,99.35
3604.00,99.35
3603.00,99.34
3602.00,99.34
3601.00,99.33
3600.00,99.33
3599.00,99.32
3598.00,99.32
3597.00,99.31
3596.00,99.30
3595.00,99.29
3594.00,99.28
3593.00,99.28
3592.00,99.27
3591.00,99.27
3590.00,99.26
3589.00,99.25
3588.00,99.23
3587.00,99.22
3586.00,99.21
3585.00,99.21
3584.00,99.20
3583.00,99.20
3582.00,99.19
3581.00,99.18
3580.00,99.18
3579.00,99.17
3578.00,99.16
3577.00,99.16
3576.00,99.15
3575.00,99.14
3574.00,99.13
3573.00,99.12
3572.00,99.12
3571.00,99.12
3570.00,99.11
3569.00,99.11
3568.00,99.10
3567.00,99.09
3566.00,99.09
3565.00,99.09
3564.00,99.09
3563.00,99.08
3562.00,99.08
3561.00,99.07
3560.00,99.06
3559.00,99.06
3558.00,99.06
3557.00,99.06
3556.00,99.06
3555.00,99.05
3554.00,99.05
3553.00,99.04
3552.00,99.04
3551.00,99.03
3550.00,99.03
3549.00,99.03
3548.00,99.02
3547.00,99.02
3546.00,99.02
3545.00,99.01
3544.00,99.01
3543.00,99.00
3542.00,99.00
3541.00,99.00
3540.00,99.00
3539.00,99.00
3538.00,98.99
3537.00,98.99
3536.00,98.98
3535.00,98.98
3534.00,98.97
3533.00,98.97
3532.00,98.96
3531.00,98.96
3530.00,98.96
3529.00,98.96
3528.00,98.95
3527.00,98.95
3526.00,98.94
3525.00,98.93
3524.00,98.93
3523.00,98.92
3522.00,98.92
3521.00,98.92
3520.00,98.92
3519.00,98.92
3518.00,98.91
3517.00,98.91
3516.00,98.91
3515.00,98.91
3514.00,98.91
3513.00,98.91
3512.00,98.91
3511.00,98.91
3510.00,98.90
3509.00,98.90
3508.00,98.89
3507.00,98.89
3506.00,98.89
3505.00,98.89
3504.00,98.89
3503.00,98.89
3502.00,98.89
3501.00,98.89
3500.00,98.89
3499.00,98.89
3498.00,98.89
3497.00,98.88
3496.00,98.88
3495.00,98.88
3494.00,98.89
3493.00,98.89
3492.00,98.89
3491.00,98.89
3490.00,98.89
3489.00,98.89
3488.00,98.89
3487.00,98.89
3486.00,98.89
3485.00,98.89
3484.00,98.88
3483.00,98.88
3482.00,98.88
3481.00,98.88
3480.00,98.88
3479.00,98.88
3478.00,98.88
3477.00,98.88
3476.00,98.87
3475.00,98.87
3474.00,98.87
3473.00,98.87
3472.00,98.86
3471.00,98.86
3470.00,98.85
3469.00,98.84
3468.00,98.83
3467.00,98.81
3466.00,98.78
3465.00,98.76
3464.00,98.73
3463.00,98.70
3462.00,98.68
3461.00,98.66
3460.00,98.64
3459.00,98.62
3458.00,98.59
3457.00,98.57
3456.00,98.55
3455.00,98.54
3454.00,98.53
3453.00,98.53
3452.00,98.52
3451.00,98.53
3450.00,98.53
3449.00,98.53
3448.00,98.52
3447.00,98.53
3446.00,98.53
3445.00,98.54
3444.00,98.54
3443.00,98.55
3442.00,98.56
3441.00,98.58
3440.00,98.59
3439.00,98.60
3438.00,98.61
3437.00,98.62
3436.00,98.62
3435.00,98.62
3434.00,98.61
3433.00,98.61
3432.00,98.61
3431.00,98.60
3430.00,98.60
3429.00,98.59
3428.00,98.58
3427.00,98.57
3426.00,98.56
3425.00,98.55
3424.00,98.54
3423.00,98.54
3422.00,98.53
3421.00,98.52
3420.00,98.51
3419.00,98.50
3418.00,98.48
3417.00,98.47
3416.00,98.46
3415.00,98.45
3414.00,98.44
3413.00,98.42
3412.00,98.41
3411.00,98.39
3410.00,98.38
3409.00,98.36
3408.00,98.34
3407.00,98.32
3406.00,98.31
3405.00,98.30
3404.00,98.29
3403.00,98.28
3402.00,98.27
3401.00,98.25
3400.00,98.22
3399.00,98.18
3398.00,98.15
3397.00,98.12
3396.00,98.09
3395.00,98.07
3394.00,98.04
3393.00,98.02
3392.00,97.99
3391.00,97.95
3390.00,97.91
3389.00,97.87
3388.00,97.82
3387.00,97.78
3386.00,97.73
3385.00,97.69
3384.00,97.65
3383.00,97.60
3382.00,97.56
3381.00,97.51
3380.00,97.46
3379.00,97.41
3378.00,97.36
3377.00,97.30
3376.00,97.23
3375.00,97.17
3374.00,97.10
3373.00,97.04
3372.00,96.98
3371.00,96.92
3370.00,96.85
3369.00,96.77
3368.00,96.69
3367.00,96.60
3366.00,96.51
3365.00,96.42
3364.00,96.32
3363.00,96.23
3362.00,96.14
3361.00,96.05
3360.00,95.95
3359.00,95.85
3358.00,95.76
3357.00,95.65
3356.00,95.55
3355.00,95.45
3354.00,95.36
3353.00,95.26
3352.00,95.17
3351.00,95.07
3350.00,94.97
3349.00,94.87
3348.00,94.76
3347.00,94.66
3346.00,94.57
3345.00,94.48
3344.00,94.39
3343.00,94.30
3342.00,94.21
3341.00,94.13
3340.00,94.04
3339.00,93.96
3338.00,93.88
3337.00,93.80
3336.00,93.72
3335.00,93.65
3334.00,93.59
3333.00,93.52
3332.00,93.47
3331.00,93.41
3330.00,93.36
3329.00,93.32
3328.00,93.29
3327.00,93.26
3326.00,93.24
3325.00,93.21
3324.00,93.20
3323.00,93.19
3322.00,93.19
3321.00,93.20
3320.00,93.21
3319.00,93.23
3318.00,93.25
3317.00,93.28
3316.00,93.31
3315.00,93.35
3314.00,93.40
3313.00,93.45
3312.00,93.51
3311.00,93.57
3310.00,93.64
3309.00,93.71
3308.00,93.78
3307.00,93.86
3306.00,93.94
3305.00,94.02
3304.00,94.10
3303.00,94.19
3302.00,94.27
3301.00,94.36
3300.00,94.45
3299.00,94.54
3298.00,94.63
3297.00,94.73
3296.00,94.82
3295.00,94.92
3294.00,95.02
3293.00,95.11
3292.00,95.21
3291.00,95.31
3290.00,95.40
3289.00,95.50
3288.00,95.59
3287.00,95.69
3286.00,95.79
3285.00,95.88
3284.00,95.98
3283.00,96.07
3282.00,96.17
3281.00,96.26
3280.00,96.36
3279.00,96.45
3278.00,96.53
3277.00,96.62
3276.00,96.70
3275.00,96.78
3274.00,96.86
3273.00,96.93
3272.00,97.01
3271.00,97.09
3270.00,97.16
3269.00,97.22
3268.00,97.29
3267.00,97.35
3266.00,97.42
3265.00,97.48
3264.00,97.54
3263.00,97.60
3262.00,97.65
3261.00,97.70
3260.00,97.75
3259.00,97.80
3258.00,97.85
3257.00,97.89
3256.00,97.94
3255.00,97.98
3254.00,98.02
3253.00,98.06
3252.00,98.10
3251.00,98.13
3250.00,98.16
3249.00,98.19
3248.00,98.22
3247.00,98.25
3246.00,98.28
3245.00,98.31
3244.00,98.33
3243.00,98.36
3242.00,98.39
3241.00,98.41
3240.00,98.44
3239.00,98.46
3238.00,98.49
3237.00,98.51
3236.00,98.53
3235.00,98.55
3234.00,98.57
3233.00,98.59
3232.00,98.61
3231.00,98.63
3230.00,98.65
3229.00,98.67
3228.00,98.69
3227.00,98.71
3226.00,98.73
3225.00,98.75
3224.00,98.76
3223.00,98.78
3222.00,98.80
3221.00,98.82
3220.00,98.83
3219.00,98.85
3218.00,98.86
3217.00,98.88
3216.00,98.89
3215.00,98.91
3214.00,98.92
3213.00,98.93
3212.00,98.95
3211.00,98.97
3210.00,98.98
3209.00,98.99
3208.00,99.00
3207.00,99.01
3206.00,99.02
3205.00,99.03
3204.00,99.04
3203.00,99.05
3202.00,99.06
3201.00,99.07
3200.00,99.08
3199.00,99.09
3198.00,99.10
3197.00,99.10
3196.00,99.11
3195.00,99.11
3194.00,99.12
3193.00,99.13
3192.00,99.13
3191.00,99.14
3190.00,99.14
3189.00,99.15
3188.00,99.15
3187.00,99.16
3186.00,99.16
3185.00,99.17
3184.00,99.18
3183.00,99.19
3182.00,99.19
3181.00,99.20
3180.00,99.20
3179.00,99.20
3178.00,99.19
3177.00,99.19
3176.00,99.19
3175.00,99.19
3174.00,99.19
3173.00,99.20
3172.00,99.20
3171.00,99.20
3170.00,99.20
3169.00,99.20
3168.00,99.20
3167.00,99.20
3166.00,99.20
3165.00,99.20
3164.00,99.20
3163.00,99.21
3162.00,99.21
3161.00,99.21
3160.00,99.22
3159.00,99.22
3158.00,99.23
3157.00,99.23
3156.00,99.24
3155.00,99.25
3154.00,99.26
3153.00,99.26
3152.00,99.26
3151.00,99.26
3150.00,99.26
3149.00,99.25
3148.00,99.25
3147.00,99.25
3146.00,99.25
3145.00,99.26
3144.00,99.26
3143.00,99.27
3142.00,99.28
3141.00,99.29
3140.00,99.29
3139.00,99.30
3138.00,99.30
3137.00,99.30
3136.00,99.30
3135.00,99.30
3134.00,99.31
3133.00,99.31
3132.00,99.31
3131.00,99.31
3130.00,99.32
3129.00,99.32
3128.00,99.32
3127.00,99.32
3126.00,99.33
3125.00,99.33
3124.00,99.34
3123.00,99.34
3122.00,99.34
3121.00,99.35
3120.00,99.35
3119.00,99.35
3118.00,99.35
3117.00,99.35
3116.00,99.35
3115.00,99.34
3114.00,99.34
3113.00,99.34
3112.00,99.33
3111.00,99.33
3110.00,99.33
3109.00,99.33
3108.00,99.32
3107.00,99.32
3106.00,99.31
3105.00,99.30
3104.00,99.30
3103.00,99.29
3102.00,99.29
3101.00,99.28
3100.00,99.28
3099.00,99.27
3098.00,99.26
3097.00,99.24
3096.00,99.23
3095.00,99.22
3094.00,99.22
3093.00,99.21
3092.00,99.21
3091.00,99.20
3090.00,99.19
3089.00,99.18
3088.00,99.17
3087.00,99.16
3086.00,99.15
3085.00,99.14
3084.00,99.13
3083.00,99.12
3082.00,99.10
3081.00,99.09
3080.00,99.09
3079.00,99.08
3078.00,99.06
3077.00,99.04
3076.00,99.02
3075.00,99.00
3074.00,98.99
3073.00,98.97
3072.00,98.96
3071.00,98.96
3070.00,98.95
3069.00,98.94
3068.00,98.93
3067.00,98.92
3066.00,98.90
3065.00,98.89
3064.00,98.87
3063.00,98.85
3062.00,98.84
3061.00,98.83
3060.00,98.83
3059.00,98.82
3058.00,98.82
3057.00,98.82
3056.00,98.82
3055.00,98.82
3054.00,98.82
3053.00,98.82
3052.00,98.82
3051.00,98.82
3050.00,98.81
3049.00,98.81
3048.00,98.81
3047.00,98.82
3046.00,98.82
3045.00,98.83
3044.00,98.83
3043.00,98.84
3042.00,98.84
3041.00,98.84
3040.00,98.84
3039.00,98.84
3038.00,98.84
3037.00,98.84
3036.00,98.84
3035.00,98.85
3034.00,98.85
3033.00,98.85
3032.00,98.85
3031.00,98.84
3030.00,98.84
3029.00,98.84
3028.00,98.84
3027.00,98.84
3026.00,98.83
3025.00,98.83
3024.00,98.83
3023.00,98.82
3022.00,98.82
3021.00,98.81
3020.00,98.81
3019.00,98.80
3018.00,98.79
3017.00,98.79
3016.00,98.78
3015.00,98.76
3014.00,98.75
3013.00,98.73
3012.00,98.71
3011.00,98.68
3010.00,98.66
3009.00,98.63
3008.00,98.60
3007.00,98.57
3006.00,98.54
3005.00,98.50
3004.00,98.46
3003.00,98.43
3002.00,98.38
3001.00,98.34
3000.00,98.30
2999.00,98.26
2998.00,98.21
2997.00,98.16
2996.00,98.10
2995.00,98.04
2994.00,97.97
2993.00,97.90
2992.00,97.82
2991.00,97.73
2990.00,97.64
2989.00,97.53
2988.00,97.42
2987.00,97.30
2986.00,97.17
2985.00,97.02
2984.00,96.87
2983.00,96.70
2982.00,96.52
2981.00,96.33
2980.00,96.13
2979.00,95.92
2978.00,95.70
2977.00,95.45
2976.00,95.19
2975.00,94.91
2974.00,94.62
2973.00,94.30
2972.00,93.97
2971.00,93.62
2970.00,93.24
2969.00,92.84
2968.00,92.42
2967.00,91.96
2966.00,91.48
2965.00,90.96
2964.00,90.41
2963.00,89.82
2962.00,89.21
2961.00,88.56
2960.00,87.90
2959.00,87.24
2958.00,86.59
2957.00,85.97
2956.00,85.40
2955.00,84.89
2954.00,84.43
2953.00,84.02
2952.00,83.63
2951.00,83.23
2950.00,82.81
2949.00,82.34
2948.00,81.81
2947.00,81.24
2946.00,80.66
2945.00,80.08
2944.00,79.54
2943.00,79.05
2942.00,78.60
2941.00,78.16
2940.00,77.72
2939.00,77.25
2938.00,76.74
2937.00,76.17
2936.00,75.54
2935.00,74.86
2934.00,74.14
2933.00,73.38
2932.00,72.58
2931.00,71.77
2930.00,70.95
2929.00,70.14
2928.00,69.35
2927.00,68.58
2926.00,67.82
2925.00,67.05
2924.00,66.24
2923.00,65.38
2922.00,64.50
2921.00,63.68
2920.00,63.01
2919.00,62.62
2918.00,62.62
2917.00,63.06
2916.00,63.95
2915.00,65.19
2914.00,66.68
2913.00,68.25
2912.00,69.80
2911.00,71.24
2910.00,72.54
2909.00,73.69
2908.00,74.71
2907.00,75.62
2906.00,76.43
2905.00,77.15
2904.00,77.81
2903.00,78.41
2902.00,78.96
2901.00,79.46
2900.00,79.94
2899.00,80.39
2898.00,80.81
2897.00,81.20
2896.00,81.57
2895.00,81.92
2894.00,82.24
2893.00,82.54
2892.00,82.82
2891.00,83.08
2890.00,83.32
2889.00,83.54
2888.00,83.74
2887.00,83.91
2886.00,84.03
2885.00,84.11
2884.00,84.14
2883.00,84.11
2882.00,84.02
2881.00,83.87
2880.00,83.64
2879.00,83.35
2878.00,82.98
2877.00,82.54
2876.00,82.07
2875.00,81.56
2874.00,81.06
2873.00,80.57
2872.00,80.11
2871.00,79.68
2870.00,79.28
2869.00,78.87
2868.00,78.45
2867.00,77.99
2866.00,77.49
2865.00,76.95
2864.00,76.36
2863.00,75.73
2862.00,75.08
2861.00,74.40
2860.00,73.71
2859.00,72.99
2858.00,72.21
2857.00,71.35
2856.00,70.33
2855.00,69.12
2854.00,67.67
2853.00,66.08
2852.00,64.54
2851.00,63.42
2850.00,63.05
2849.00,63.63
2848.00,65.10
2847.00,67.17
2846.00,69.47
2845.00,71.75
2844.00,73.84
2843.00,75.74
2842.00,77.45
2841.00,79.04
2840.00,80.51
2839.00,81.88
2838.00,83.16
2837.00,84.36
2836.00,85.47
2835.00,86.50
2834.00,87.46
2833.00,88.34
2832.00,89.16
2831.00,89.93
2830.00,90.63
2829.00,91.28
2828.00,91.87
2827.00,92.39
2826.00,92.86
2825.00,93.27
2824.00,93.63
2823.00,93.95
2822.00,94.22
2821.00,94.45
2820.00,94.65
2819.00,94.81
2818.00,94.94
2817.00,95.05
2816.00,95.12
2815.00,95.18
2814.00,95.21
2813.00,95.21
2812.00,95.19
2811.00,95.15
2810.00,95.09
2809.00,95.01
2808.00,94.91
2807.00,94.79
2806.00,94.66
2805.00,94.53
2804.00,94.39
2803.00,94.26
2802.00,94.14
2801.00,94.03
2800.00,93.94
2799.00,93.88
2798.00,93.85
2797.00,93.84
2796.00,93.88
2795.00,93.95
2794.00,94.05
2793.00,94.18
2792.00,94.34
2791.00,94.52
2790.00,94.71
2789.00,94.91
2788.00,95.12
2787.00,95.33
2786.00,95.53
2785.00,95.72
2784.00,95.91
2783.00,96.08
2782.00,96.25
2781.00,96.40
2780.00,96.53
2779.00,96.66
2778.00,96.78
2777.00,96.88
2776.00,96.97
2775.00,97.06
2774.00,97.13
2773.00,97.20
2772.00,97.26
2771.00,97.31
2770.00,97.36
2769.00,97.40
2768.00,97.44
2767.00,97.48
2766.00,97.51
2765.00,97.53
2764.00,97.55
2763.00,97.57
2762.00,97.59
2761.00,97.60
2760.00,97.60
2759.00,97.61
2758.00,97.62
2757.00,97.63
2756.00,97.63
2755.00,97.63
2754.00,97.63
2753.00,97.63
2752.00,97.63
2751.00,97.62
2750.00,97.62
2749.00,97.62
2748.00,97.61
2747.00,97.61
2746.00,97.60
2745.00,97.59
2744.00,97.59
2743.00,97.58
2742.00,97.58
2741.00,97.58
2740.00,97.58
2739.00,97.58
2738.00,97.59
2737.00,97.59
2736.00,97.60
2735.00,97.62
2734.00,97.63
2733.00,97.64
2732.00,97.66
2731.00,97.68
2730.00,97.70
2729.00,97.73
2728.00,97.75
2727.00,97.78
2726.00,97.81
2725.00,97.83
2724.00,97.85
2723.00,97.88
2722.00,97.90
2721.00,97.92
2720.00,97.95
2719.00,97.97
2718.00,97.99
2717.00,98.01
2716.00,98.03
2715.00,98.05
2714.00,98.07
2713.00,98.08
2712.00,98.09
2711.00,98.10
2710.00,98.11
2709.00,98.12
2708.00,98.13
2707.00,98.15
2706.00,98.16
2705.00,98.18
2704.00,98.19
2703.00,98.21
2702.00,98.23
2701.00,98.25
2700.00,98.27
2699.00,98.29
2698.00,98.32
2697.00,98.35
2696.00,98.38
2695.00,98.40
2694.00,98.43
2693.00,98.45
2692.00,98.48
2691.00,98.50
2690.00,98.52
2689.00,98.54
2688.00,98.57
2687.00,98.59
2686.00,98.61
2685.00,98.63
2684.00,98.65
2683.00,98.66
2682.00,98.68
2681.00,98.69
2680.00,98.70
2679.00,98.71
2678.00,98.72
2677.00,98.73
2676.00,98.74
2675.00,98.74
2674.00,98.75
2673.00,98.76
2672.00,98.77
2671.00,98.78
2670.00,98.78
2669.00,98.80
2668.00,98.81
2667.00,98.82
2666.00,98.83
2665.00,98.84
2664.00,98.85
2663.00,98.86
2662.00,98.87
2661.00,98.88
2660.00,98.89
2659.00,98.90
2658.00,98.91
2657.00,98.92
2656.00,98.93
2655.00,98.94
2654.00,98.95
2653.00,98.96
2652.00,98.96
2651.00,98.97
2650.00,98.97
2649.00,98.97
2648.00,98.98
2647.00,98.98
2646.00,98.99
2645.00,98.99
2644.00,98.99
2643.00,99.00
2642.00,99.00
2641.00,99.01
2640.00,99.02
2639.00,99.02
2638.00,99.03
2637.00,99.03
2636.00,99.04
2635.00,99.04
2634.00,99.05
2633.00,99.05
2632.00,99.06
2631.00,99.06
2630.00,99.07
2629.00,99.07
2628.00,99.08
2627.00,99.09
2626.00,99.10
2625.00,99.10
2624.00,99.11
2623.00,99.11
2622.00,99.12
2621.00,99.12
2620.00,99.13
2619.00,99.13
2618.00,99.14
2617.00,99.15
2616.00,99.15
2615.00,99.16
2614.00,99.16
2613.00,99.17
2612.00,99.18
2611.00,99.18
2610.00,99.19
2609.00,99.19
2608.00,99.19
2607.00,99.19
2606.00,99.20
2605.00,99.21
2604.00,99.21
2603.00,99.22
2602.00,99.22
2601.00,99.22
2600.00,99.23
2599.00,99.24
2598.00,99.25
2597.00,99.26
2596.00,99.26
2595.00,99.27
2594.00,99.28
2593.00,99.28
2592.00,99.29
2591.00,99.30
2590.00,99.31
2589.00,99.32
2588.00,99.32
2587.00,99.33
2586.00,99.33
2585.00,99.34
2584.00,99.34
2583.00,99.34
2582.00,99.34
2581.00,99.34
2580.00,99.35
2579.00,99.35
2578.00,99.35
2577.00,99.35
2576.00,99.36
2575.00,99.37
2574.00,99.37
2573.00,99.38
2572.00,99.39
2571.00,99.39
2570.00,99.39
2569.00,99.40
2568.00,99.40
2567.00,99.40
2566.00,99.41
2565.00,99.42
2564.00,99.42
2563.00,99.43
2562.00,99.43
2561.00,99.43
2560.00,99.43
2559.00,99.43
2558.00,99.44
2557.00,99.44
2556.00,99.45
2555.00,99.46
2554.00,99.46
2553.00,99.47
2552.00,99.48
2551.00,99.49
2550.00,99.50
2549.00,99.50
2548.00,99.51
2547.00,99.51
2546.00,99.51
2545.00,99.52
2544.00,99.52
2543.00,99.53
2542.00,99.53
2541.00,99.53
2540.00,99.53
2539.00,99.53
2538.00,99.53
2537.00,99.53
2536.00,99.52
2535.00,99.52
2534.00,99.52
2533.00,99.52
2532.00,99.51
2531.00,99.51
2530.00,99.51
2529.00,99.51
2528.00,99.51
2527.00,99.52
2526.00,99.52
2525.00,99.52
2524.00,99.53
2523.00,99.53
2522.00,99.54
2521.00,99.54
2520.00,99.54
2519.00,99.54
2518.00,99.54
2517.00,99.54
2516.00,99.55
2515.00,99.55
2514.00,99.56
2513.00,99.56
2512.00,99.56
2511.00,99.55
2510.00,99.55
2509.00,99.54
2508.00,99.54
2507.00,99.54
2506.00,99.55
2505.00,99.55
2504.00,99.56
2503.00,99.56
2502.00,99.57
2501.00,99.57
2500.00,99.58
2499.00,99.58
2498.00,99.58
2497.00,99.58
2496.00,99.58
2495.00,99.59
2494.00,99.59
2493.00,99.59
2492.00,99.59
2491.00,99.59
2490.00,99.59
2489.00,99.59
2488.00,99.59
2487.00,99.59
2486.00,99.60
2485.00,99.60
2484.00,99.60
2483.00,99.61
2482.00,99.61
2481.00,99.61
2480.00,99.60
2479.00,99.61
2478.00,99.61
2477.00,99.61
2476.00,99.61
2475.00,99.61
2474.00,99.62
2473.00,99.61
2472.00,99.61
2471.00,99.62
2470.00,99.62
2469.00,99.63
2468.00,99.63
2467.00,99.64
2466.00,99.64
2465.00,99.64
2464.00,99.64
2463.00,99.64
2462.00,99.64
2461.00,99.64
2460.00,99.64
2459.00,99.64
2458.00,99.64
2457.00,99.63
2456.00,99.63
2455.00,99.62
2454.00,99.63
2453.00,99.63
2452.00,99.63
2451.00,99.64
2450.00,99.64
2449.00,99.63
2448.00,99.63
2447.00,99.63
2446.00,99.63
2445.00,99.63
2444.00,99.63
2443.00,99.63
2442.00,99.63
2441.00,99.62
2440.00,99.62
2439.00,99.63
2438.00,99.63
2437.00,99.64
2436.00,99.64
2435.00,99.64
2434.00,99.63
2433.00,99.63
2432.00,99.62
2431.00,99.62
2430.00,99.63
2429.00,99.63
2428.00,99.63
2427.00,99.63
2426.00,99.63
2425.00,99.64
2424.00,99.63
2423.00,99.63
2422.00,99.62
2421.00,99.62
2420.00,99.62
2419.00,99.62
2418.00,99.62
2417.00,99.62
2416.00,99.62
2415.00,99.62
2414.00,99.62
2413.00,99.62
2412.00,99.61
2411.00,99.61
2410.00,99.61
2409.00,99.61
2408.00,99.61
2407.00,99.61
2406.00,99.62
2405.00,99.62
2404.00,99.62
2403.00,99.62
2402.00,99.62
2401.00,99.62
2400.00,99.62
2399.00,99.62
2398.00,99.62
2397.00,99.62
2396.00,99.62
2395.00,99.63
2394.00,99.64
2393.00,99.64
2392.00,99.64
2391.00,99.64
2390.00,99.64
2389.00,99.64
2388.00,99.64
2387.00,99.64
2386.00,99.64
2385.00,99.64
2384.00,99.64
2383.00,99.63
2382.00,99.63
2381.00,99.63
2380.00,99.63
2379.00,99.64
2378.00,99.65
2377.00,99.65
2376.00,99.65
2375.00,99.64
2374.00,99.64
2373.00,99.63
2372.00,99.63
2371.00,99.63
2370.00,99.64
2369.00,99.64
2368.00,99.64
2367.00,99.65
2366.00,99.65
2365.00,99.64
2364.00,99.63
2363.00,99.62
2362.00,99.60
2361.00,99.58
2360.00,99.58
2359.00,99.58
2358.00,99.59
2357.00,99.58
2356.00,99.58
2355.00,99.59
2354.00,99.59
2353.00,99.58
2352.00,99.58
2351.00,99.58
2350.00,99.58
2349.00,99.57
2348.00,99.56
2347.00,99.56
2346.00,99.56
2345.00,99.55
2344.00,99.55
2343.00,99.55
2342.00,99.55
2341.00,99.53
2340.00,99.52
2339.00,99.52
2338.00,99.51
2337.00,99.51
2336.00,99.51
2335.00,99.52
2334.00,99.53
2333.00,99.52
2332.00,99.52
2331.00,99.52
2330.00,99.52
2329.00,99.52
2328.00,99.50
2327.00,99.48
2326.00,99.44
2325.00,99.40
2324.00,99.38
2323.00,99.37
2322.00,99.38
2321.00,99.40
2320.00,99.42
2319.00,99.43
2318.00,99.43
2317.00,99.43
2316.00,99.43
2315.00,99.44
2314.00,99.45
2313.00,99.45
2312.00,99.46
2311.00,99.46
2310.00,99.47
2309.00,99.47
2308.00,99.47
2307.00,99.47
2306.00,99.48
2305.00,99.48
2304.00,99.48
2303.00,99.49
2302.00,99.49
2301.00,99.49
2300.00,99.49
2299.00,99.49
2298.00,99.49
2297.00,99.49
2296.00,99.48
2295.00,99.48
2294.00,99.47
2293.00,99.47
2292.00,99.46
2291.00,99.45
2290.00,99.44
2289.00,99.43
2288.00,99.42
2287.00,99.41
2286.00,99.40
2285.00,99.40
2284.00,99.39
2283.00,99.40
2282.00,99.40
2281.00,99.40
2280.00,99.40
2279.00,99.41
2278.00,99.42
2277.00,99.42
2276.00,99.42
2275.00,99.42
2274.00,99.42
2273.00,99.42
2272.00,99.42
2271.00,99.42
2270.00,99.42
2269.00,99.41
2268.00,99.41
2267.00,99.42
2266.00,99.43
2265.00,99.43
2264.00,99.43
2263.00,99.43
2262.00,99.43
2261.00,99.42
2260.00,99.41
2259.00,99.41
2258.00,99.42
2257.00,99.42
2256.00,99.43
2255.00,99.44
2254.00,99.45
2253.00,99.45
2252.00,99.45
2251.00,99.46
2250.00,99.46
2249.00,99.45
2248.00,99.45
2247.00,99.45
2246.00,99.46
2245.00,99.46
2244.00,99.46
2243.00,99.48
2242.00,99.49
2241.00,99.50
2240.00,99.49
2239.00,99.49
2238.00,99.49
2237.00,99.47
2236.00,99.47
2235.00,99.47
2234.00,99.47
2233.00,99.47
2232.00,99.46
2231.00,99.47
2230.00,99.48
2229.00,99.49
2228.00,99.48
2227.00,99.48
2226.00,99.48
2225.00,99.47
2224.00,99.47
2223.00,99.47
2222.00,99.48
2221.00,99.48
2220.00,99.47
2219.00,99.48
2218.00,99.48
2217.00,99.47
2216.00,99.47
2215.00,99.48
2214.00,99.48
2213.00,99.48
2212.00,99.47
2211.00,99.48
2210.00,99.48
2209.00,99.49
2208.00,99.49
2207.00,99.49
2206.00,99.49
2205.00,99.48
2204.00,99.48
2203.00,99.48
2202.00,99.47
2201.00,99.46
2200.00,99.45
2199.00,99.45
2198.00,99.46
2197.00,99.46
2196.00,99.45
2195.00,99.45
2194.00,99.45
2193.00,99.44
2192.00,99.45
2191.00,99.46
2190.00,99.47
2189.00,99.47
2188.00,99.46
2187.00,99.47
2186.00,99.47
2185.00,99.46
2184.00,99.47
2183.00,99.48
2182.00,99.51
2181.00,99.51
2180.00,99.51
2179.00,99.50
2178.00,99.48
2177.00,99.47
2176.00,99.47
2175.00,99.50
2174.00,99.53
2173.00,99.54
2172.00,99.52
2171.00,99.50
2170.00,99.46
2169.00,99.42
2168.00,99.39
2167.00,99.38
2166.00,99.38
2165.00,99.37
2164.00,99.36
2163.00,99.37
2162.00,99.38
2161.00,99.41
2160.00,99.49
2159.00,99.63
2158.00,99.76
2157.00,99.82
2156.00,99.83
2155.00,99.82
2154.00,99.79
2153.00,99.76
2152.00,99.73
2151.00,99.71
2150.00,99.70
2149.00,99.68
2148.00,99.67
2147.00,99.68
2146.00,99.69
2145.00,99.68
2144.00,99.68
2143.00,99.68
2142.00,99.68
2141.00,99.67
2140.00,99.67
2139.00,99.68
2138.00,99.68
2137.00,99.69
2136.00,99.70
2135.00,99.73
2134.00,99.76
2133.00,99.76
2132.00,99.74
2131.00,99.73
2130.00,99.70
2129.00,99.67
2128.00,99.64
2127.00,99.63
2126.00,99.61
2125.00,99.60
2124.00,99.59
2123.00,99.58
2122.00,99.57
2121.00,99.56
2120.00,99.55
2119.00,99.54
2118.00,99.53
2117.00,99.51
2116.00,99.50
2115.00,99.49
2114.00,99.48
2113.00,99.47
2112.00,99.45
2111.00,99.45
2110.00,99.44
2109.00,99.43
2108.00,99.42
2107.00,99.41
2106.00,99.42
2105.00,99.42
2104.00,99.41
2103.00,99.41
2102.00,99.40
2101.00,99.39
2100.00,99.38
2099.00,99.38
2098.00,99.38
2097.00,99.38
2096.00,99.39
2095.00,99.41
2094.00,99.42
2093.00,99.43
2092.00,99.43
2091.00,99.43
2090.00,99.42
2089.00,99.39
2088.00,99.37
2087.00,99.35
2086.00,99.35
2085.00,99.34
2084.00,99.34
2083.00,99.34
2082.00,99.34
2081.00,99.32
2080.00,99.31
2079.00,99.30
2078.00,99.30
2077.00,99.30
2076.00,99.30
2075.00,99.31
2074.00,99.31
2073.00,99.31
2072.00,99.31
2071.00,99.32
2070.00,99.33
2069.00,99.33
2068.00,99.33
2067.00,99.35
2066.00,99.37
2065.00,99.38
2064.00,99.37
2063.00,99.36
2062.00,99.35
2061.00,99.34
2060.00,99.33
2059.00,99.34
2058.00,99.35
2057.00,99.34
2056.00,99.33
2055.00,99.33
2054.00,99.32
2053.00,99.29
2052.00,99.24
2051.00,99.22
2050.00,99.22
2049.00,99.24
2048.00,99.26
2047.00,99.29
2046.00,99.30
2045.00,99.30
2044.00,99.30
2043.00,99.32
2042.00,99.33
2041.00,99.32
2040.00,99.30
2039.00,99.30
2038.00,99.30
2037.00,99.29
2036.00,99.28
2035.00,99.30
2034.00,99.32
2033.00,99.32
2032.00,99.33
2031.00,99.36
2030.00,99.39
2029.00,99.40
2028.00,99.39
2027.00,99.40
2026.00,99.40
2025.00,99.39
2024.00,99.39
2023.00,99.41
2022.00,99.43
2021.00,99.42
2020.00,99.41
2019.00,99.43
2018.00,99.45
2017.00,99.44
2016.00,99.42
2015.00,99.43
2014.00,99.43
2013.00,99.42
2012.00,99.42
2011.00,99.43
2010.00,99.45
2009.00,99.44
2008.00,99.45
2007.00,99.48
2006.00,99.51
2005.00,99.51
2004.00,99.50
2003.00,99.51
2002.00,99.51
2001.00,99.49
2000.00,99.46
1999.00,99.45
1998.00,99.44
1997.00,99.43
1996.00,99.42
1995.00,99.43
1994.00,99.44
1993.00,99.44
1992.00,99.43
1991.00,99.44
1990.00,99.44
1989.00,99.42
1988.00,99.41
1987.00,99.41
1986.00,99.41
1985.00,99.39
1984.00,99.35
1983.00,99.33
1982.00,99.29
1981.00,99.25
1980.00,99.23
1979.00,99.28
1978.00,99.37
1977.00,99.44
1976.00,99.48
1975.00,99.52
1974.00,99.55
1973.00,99.54
1972.00,99.52
1971.00,99.52
1970.00,99.53
1969.00,99.52
1968.00,99.51
1967.00,99.53
1966.00,99.54
1965.00,99.53
1964.00,99.52
1963.00,99.52
1962.00,99.54
1961.00,99.54
1960.00,99.54
1959.00,99.56
1958.00,99.57
1957.00,99.56
1956.00,99.54
1955.00,99.53
1954.00,99.52
1953.00,99.51
1952.00,99.49
1951.00,99.50
1950.00,99.50
1949.00,99.49
1948.00,99.48
1947.00,99.49
1946.00,99.50
1945.00,99.49
1944.00,99.49
1943.00,99.51
1942.00,99.53
1941.00,99.52
1940.00,99.50
1939.00,99.50
1938.00,99.51
1937.00,99.50
1936.00,99.50
1935.00,99.51
1934.00,99.52
1933.00,99.51
1932.00,99.50
1931.00,99.50
1930.00,99.51
1929.00,99.51
1928.00,99.50
1927.00,99.50
1926.00,99.51
1925.00,99.51
1924.00,99.51
1923.00,99.52
1922.00,99.53
1921.00,99.50
1920.00,99.48
1919.00,99.47
1918.00,99.49
1917.00,99.49
1916.00,99.47
1915.00,99.47
1914.00,99.47
1913.00,99.47
1912.00,99.46
1911.00,99.48
1910.00,99.50
1909.00,99.51
1908.00,99.51
1907.00,99.51
1906.00,99.51
1905.00,99.50
1904.00,99.49
1903.00,99.49
1902.00,99.49
1901.00,99.48
1900.00,99.47
1899.00,99.47
1898.00,99.49
1897.00,99.49
1896.00,99.48
1895.00,99.49
1894.00,99.49
1893.00,99.48
1892.00,99.47
1891.00,99.48
1890.00,99.50
1889.00,99.50
1888.00,99.49
1887.00,99.49
1886.00,99.49
1885.00,99.49
1884.00,99.48
1883.00,99.47
1882.00,99.48
1881.00,99.47
1880.00,99.46
1879.00,99.47
1878.00,99.47
1877.00,99.47
1876.00,99.46
1875.00,99.46
1874.00,99.46
1873.00,99.44
1872.00,99.42
1871.00,99.42
1870.00,99.43
1869.00,99.43
1868.00,99.43
1867.00,99.44
1866.00,99.45
1865.00,99.45
1864.00,99.44
1863.00,99.44
1862.00,99.44
1861.00,99.43
1860.00,99.42
1859.00,99.43
1858.00,99.43
1857.00,99.42
1856.00,99.41
1855.00,99.40
1854.00,99.41
1853.00,99.41
1852.00,99.40
1851.00,99.40
1850.00,99.42
1849.00,99.42
1848.00,99.41
1847.00,99.40
1846.00,99.40
1845.00,99.42
1844.00,99.44
1843.00,99.46
1842.00,99.46
1841.00,99.42
1840.00,99.40
1839.00,99.39
1838.00,99.40
1837.00,99.39
1836.00,99.39
1835.00,99.39
1834.00,99.37
1833.00,99.34
1832.00,99.29
1831.00,99.27
1830.00,99.27
1829.00,99.27
1828.00,99.26
1827.00,99.27
1826.00,99.29
1825.00,99.29
1824.00,99.29
1823.00,99.28
1822.00,99.28
1821.00,99.27
1820.00,99.26
1819.00,99.27
1818.00,99.28
1817.00,99.28
1816.00,99.26
1815.00,99.24
1814.00,99.22
1813.00,99.19
1812.00,99.17
1811.00,99.16
1810.00,99.15
1809.00,99.14
1808.00,99.13
1807.00,99.12
1806.00,99.11
1805.00,99.09
1804.00,99.08
1803.00,99.09
1802.00,99.09
1801.00,99.06
1800.00,99.03
1799.00,99.01
1798.00,99.01
1797.00,99.01
1796.00,98.99
1795.00,98.96
1794.00,98.95
1793.00,98.94
1792.00,98.95
1791.00,98.97
1790.00,98.98
1789.00,98.95
1788.00,98.93
1787.00,98.92
1786.00,98.93
1785.00,98.93
1784.00,98.91
1783.00,98.89
1782.00,98.87
1781.00,98.86
1780.00,98.85
1779.00,98.84
1778.00,98.84
1777.00,98.81
1776.00,98.77
1775.00,98.74
1774.00,98.72
1773.00,98.70
1772.00,98.68
1771.00,98.68
1770.00,98.70
1769.00,98.72
1768.00,98.72
1767.00,98.71
1766.00,98.66
1765.00,98.60
1764.00,98.54
1763.00,98.51
1762.00,98.51
1761.00,98.48
1760.00,98.44
1759.00,98.40
1758.00,98.36
1757.00,98.30
1756.00,98.24
1755.00,98.17
1754.00,98.12
1753.00,98.07
1752.00,98.01
1751.00,97.91
1750.00,97.77
1749.00,97.58
1748.00,97.40
1747.00,97.24
1746.00,97.10
1745.00,96.93
1744.00,96.71
1743.00,96.45
1742.00,96.16
1741.00,95.80
1740.00,95.38
1739.00,94.96
1738.00,94.56
1737.00,94.16
1736.00,93.65
1735.00,92.87
1734.00,91.82
1733.00,90.75
1732.00,89.72
1731.00,88.61
1730.00,87.37
1729.00,86.03
1728.00,84.69
1727.00,83.37
1726.00,82.03
1725.00,80.64
1724.00,79.21
1723.00,77.89
1722.00,76.75
1721.00,75.80
1720.00,74.94
1719.00,74.10
1718.00,73.27
1717.00,72.62
1716.00,72.24
1715.00,72.05
1714.00,71.98
1713.00,71.95
1712.00,71.92
1711.00,71.85
1710.00,71.73
1709.00,71.52
1708.00,71.22
1707.00,70.83
1706.00,70.36
1705.00,69.88
1704.00,69.48
1703.00,69.17
1702.00,68.77
1701.00,68.10
1700.00,67.34
1699.00,66.81
1698.00,66.43
1697.00,65.97
1696.00,65.35
1695.00,64.70
1694.00,64.17
1693.00,63.74
1692.00,63.37
1691.00,63.04
1690.00,62.77
1689.00,62.66
1688.00,62.74
1687.00,63.04
1686.00,63.65
1685.00,64.90
1684.00,66.73
1683.00,68.47
1682.00,69.97
1681.00,71.55
1680.00,73.27
1679.00,74.90
1678.00,76.31
1677.00,77.68
1676.00,79.18
1675.00,80.60
1674.00,81.67
1673.00,82.44
1672.00,83.08
1671.00,83.70
1670.00,84.27
1669.00,84.81
1668.00,85.25
1667.00,85.53
1666.00,85.70
1665.00,85.88
1664.00,86.13
1663.00,86.45
1662.00,86.82
1661.00,87.26
1660.00,87.78
1659.00,88.34
1658.00,88.88
1657.00,89.41
1656.00,89.97
1655.00,90.60
1654.00,91.45
1653.00,92.46
1652.00,93.20
1651.00,93.46
1650.00,93.47
1649.00,93.56
1648.00,93.86
1647.00,94.26
1646.00,94.61
1645.00,94.87
1644.00,95.06
1643.00,95.18
1642.00,95.27
1641.00,95.36
1640.00,95.45
1639.00,95.50
1638.00,95.51
1637.00,95.55
1636.00,95.66
1635.00,95.79
1634.00,95.86
1633.00,95.90
1632.00,95.93
1631.00,95.96
1630.00,95.95
1629.00,95.94
1628.00,95.97
1627.00,96.01
1626.00,96.01
1625.00,96.01
1624.00,96.06
1623.00,96.13
1622.00,96.18
1621.00,96.21
1620.00,96.25
1619.00,96.29
1618.00,96.32
1617.00,96.36
1616.00,96.41
1615.00,96.41
1614.00,96.34
1613.00,96.27
1612.00,96.24
1611.00,96.21
1610.00,96.14
1609.00,96.06
1608.00,96.00
1607.00,95.93
1606.00,95.81
1605.00,95.67
1604.00,95.52
1603.00,95.35
1602.00,95.13
1601.00,94.88
1600.00,94.62
1599.00,94.31
1598.00,93.93
1597.00,93.47
1596.00,92.91
1595.00,92.24
1594.00,91.43
1593.00,90.46
1592.00,89.32
1591.00,87.99
1590.00,86.45
1589.00,84.75
1588.00,82.99
1587.00,81.27
1586.00,79.76
1585.00,78.62
1584.00,77.98
1583.00,77.89
1582.00,78.28
1581.00,78.95
1580.00,79.67
1579.00,80.33
1578.00,80.92
1577.00,81.45
1576.00,81.90
1575.00,82.25
1574.00,82.54
1573.00,82.86
1572.00,83.34
1571.00,84.05
1570.00,84.99
1569.00,85.92
1568.00,86.64
1567.00,87.12
1566.00,87.42
1565.00,87.63
1564.00,87.77
1563.00,87.83
1562.00,87.81
1561.00,87.69
1560.00,87.33
1559.00,86.71
1558.00,86.12
1557.00,85.73
1556.00,85.33
1555.00,84.80
1554.00,84.11
1553.00,83.39
1552.00,82.64
1551.00,81.77
1550.00,80.74
1549.00,79.68
1548.00,78.74
1547.00,77.83
1546.00,76.82
1545.00,75.69
1544.00,74.56
1543.00,73.53
1542.00,72.51
1541.00,71.42
1540.00,70.37
1539.00,69.61
1538.00,69.16
1537.00,68.85
1536.00,68.60
1535.00,68.30
1534.00,67.90
1533.00,67.53
1532.00,67.29
1531.00,67.15
1530.00,67.04
1529.00,66.97
1528.00,66.97
1527.00,67.06
1526.00,67.21
1525.00,67.42
1524.00,67.72
1523.00,68.15
1522.00,68.76
1521.00,69.46
1520.00,70.09
1519.00,70.65
1518.00,71.29
1517.00,72.10
1516.00,72.95
1515.00,73.71
1514.00,74.41
1513.00,75.11
1512.00,75.81
1511.00,76.47
1510.00,77.08
1509.00,77.70
1508.00,78.46
1507.00,79.41
1506.00,80.32
1505.00,81.01
1504.00,81.52
1503.00,81.99
1502.00,82.53
1501.00,83.13
1500.00,83.75
1499.00,84.39
1498.00,85.11
1497.00,85.87
1496.00,86.54
1495.00,87.05
1494.00,87.40
1493.00,87.65
1492.00,87.82
1491.00,87.93
1490.00,87.95
1489.00,87.83
1488.00,87.59
1487.00,87.31
1486.00,87.03
1485.00,86.76
1484.00,86.46
1483.00,86.14
1482.00,85.80
1481.00,85.44
1480.00,85.08
1479.00,84.71
1478.00,84.30
1477.00,83.78
1476.00,83.16
1475.00,82.55
1474.00,82.13
1473.00,82.09
1472.00,82.40
1471.00,82.77
1470.00,82.97
1469.00,82.96
1468.00,82.80
1467.00,82.52
1466.00,82.18
1465.00,81.83
1464.00,81.62
1463.00,81.62
1462.00,81.78
1461.00,82.03
1460.00,82.29
1459.00,82.51
1458.00,82.52
1457.00,82.25
1456.00,81.81
1455.00,81.32
1454.00,80.77
1453.00,80.12
1452.00,79.40
1451.00,78.66
1450.00,77.93
1449.00,77.21
1448.00,76.60
1447.00,76.23
1446.00,76.13
1445.00,76.27
1444.00,76.57
1443.00,76.93
1442.00,77.24
1441.00,77.41
1440.00,77.46
1439.00,77.39
1438.00,77.19
1437.00,76.90
1436.00,76.73
1435.00,76.83
1434.00,77.20
1433.00,77.81
1432.00,78.71
1431.00,79.84
1430.00,81.05
1429.00,82.12
1428.00,82.94
1427.00,83.52
1426.00,84.03
1425.00,84.65
1424.00,85.40
1423.00,86.12
1422.00,86.71
1421.00,87.20
1420.00,87.63
1419.00,87.98
1418.00,88.22
1417.00,88.36
1416.00,88.47
1415.00,88.57
1414.00,88.70
1413.00,88.88
1412.00,89.10
1411.00,89.33
1410.00,89.58
1409.00,89.83
1408.00,90.06
1407.00,90.24
1406.00,90.35
1405.00,90.40
1404.00,90.41
1403.00,90.41
1402.00,90.51
1401.00,90.77
1400.00,91.19
1399.00,91.66
1398.00,92.08
1397.00,92.40
1396.00,92.66
1395.00,92.83
1394.00,92.94
1393.00,93.00
1392.00,92.99
1391.00,92.93
1390.00,92.84
1389.00,92.72
1388.00,92.53
1387.00,92.23
1386.00,91.84
1385.00,91.40
1384.00,90.90
1383.00,90.33
1382.00,89.69
1381.00,89.03
1380.00,88.35
1379.00,87.66
1378.00,87.02
1377.00,86.46
1376.00,85.94
1375.00,85.43
1374.00,84.94
1373.00,84.53
1372.00,84.17
1371.00,83.86
1370.00,83.60
1369.00,83.40
1368.00,83.25
1367.00,83.16
1366.00,83.17
1365.00,83.28
1364.00,83.48
1363.00,83.74
1362.00,84.03
1361.00,84.33
1360.00,84.61
1359.00,84.87
1358.00,85.13
1357.00,85.39
1356.00,85.62
1355.00,85.83
1354.00,86.00
1353.00,86.17
1352.00,86.32
1351.00,86.46
1350.00,86.60
1349.00,86.77
1348.00,86.93
1347.00,87.06
1346.00,87.15
1345.00,87.17
1344.00,87.11
1343.00,86.98
1342.00,86.84
1341.00,86.70
1340.00,86.55
1339.00,86.35
1338.00,86.09
1337.00,85.74
1336.00,85.33
1335.00,84.91
1334.00,84.60
1333.00,84.48
1332.00,84.52
1331.00,84.63
1330.00,84.68
1329.00,84.55
1328.00,84.19
1327.00,83.60
1326.00,82.82
1325.00,81.92
1324.00,80.97
1323.00,80.04
1322.00,79.17
1321.00,78.44
1320.00,77.91
1319.00,77.68
1318.00,77.82
1317.00,78.27
1316.00,78.91
1315.00,79.63
1314.00,80.34
1313.00,80.96
1312.00,81.43
1311.00,81.74
1310.00,81.88
1309.00,81.89
1308.00,81.80
1307.00,81.69
1306.00,81.64
1305.00,81.72
1304.00,81.94
1303.00,82.29
1302.00,82.76
1301.00,83.32
1300.00,83.97
1299.00,84.70
1298.00,85.53
1297.00,86.39
1296.00,87.20
1295.00,87.86
1294.00,88.32
1293.00,88.56
1292.00,88.57
1291.00,88.37
1290.00,87.99
1289.00,87.47
1288.00,86.83
1287.00,86.10
1286.00,85.35
1285.00,84.64
1284.00,84.00
1283.00,83.46
1282.00,83.02
1281.00,82.68
1280.00,82.42
1279.00,82.22
1278.00,82.09
1277.00,82.03
1276.00,82.02
1275.00,82.04
1274.00,82.07
1273.00,82.12
1272.00,82.19
1271.00,82.29
1270.00,82.41
1269.00,82.54
1268.00,82.62
1267.00,82.63
1266.00,82.55
1265.00,82.37
1264.00,82.07
1263.00,81.64
1262.00,81.06
1261.00,80.36
1260.00,79.53
1259.00,78.65
1258.00,77.75
1257.00,76.87
1256.00,76.05
1255.00,75.32
1254.00,74.72
1253.00,74.22
1252.00,73.78
1251.00,73.38
1250.00,73.02
1249.00,72.68
1248.00,72.37
1247.00,72.13
1246.00,71.97
1245.00,71.89
1244.00,71.87
1243.00,71.87
1242.00,71.88
1241.00,71.85
1240.00,71.77
1239.00,71.63
1238.00,71.43
1237.00,71.15
1236.00,70.75
1235.00,70.24
1234.00,69.64
1233.00,68.98
1232.00,68.31
1231.00,67.70
1230.00,67.20
1229.00,66.84
1228.00,66.64
1227.00,66.66
1226.00,66.90
1225.00,67.35
1224.00,67.93
1223.00,68.59
1222.00,69.27
1221.00,69.93
1220.00,70.56
1219.00,71.19
1218.00,71.85
1217.00,72.53
1216.00,73.24
1215.00,73.93
1214.00,74.60
1213.00,75.21
1212.00,75.77
1211.00,76.31
1210.00,76.88
1209.00,77.47
1208.00,78.08
1207.00,78.70
1206.00,79.31
1205.00,79.90
1204.00,80.45
1203.00,80.97
1202.00,81.47
1201.00,81.99
1200.00,82.52
1199.00,83.08
1198.00,83.67
1197.00,84.29
1196.00,84.95
1195.00,85.63
1194.00,86.33
1193.00,87.03
1192.00,87.74
1191.00,88.41
1190.00,89.05
1189.00,89.66
1188.00,90.22
1187.00,90.73
1186.00,91.17
1185.00,91.54
1184.00,91.84
1183.00,92.05
1182.00,92.20
1181.00,92.32
1180.00,92.43
1179.00,92.53
1178.00,92.63
1177.00,92.73
1176.00,92.81
1175.00,92.85
1174.00,92.85
1173.00,92.82
1172.00,92.75
1171.00,92.62
1170.00,92.45
1169.00,92.25
1168.00,92.01
1167.00,91.74
1166.00,91.45
1165.00,91.17
1164.00,90.88
1163.00,90.59
1162.00,90.28
1161.00,89.98
1160.00,89.66
1159.00,89.32
1158.00,88.97
1157.00,88.60
1156.00,88.23
1155.00,87.84
1154.00,87.47
1153.00,87.12
1152.00,86.79
1151.00,86.48
1150.00,86.19
1149.00,85.92
1148.00,85.66
1147.00,85.41
1146.00,85.17
1145.00,84.92
1144.00,84.66
1143.00,84.36
1142.00,84.03
1141.00,83.64
1140.00,83.19
1139.00,82.66
1138.00,82.05
1137.00,81.34
1136.00,80.53
1135.00,79.62
1134.00,78.63
1133.00,77.58
1132.00,76.49
1131.00,75.36
1130.00,74.20
1129.00,73.01
1128.00,71.77
1127.00,70.50
1126.00,69.19
1125.00,67.85
1124.00,66.48
1123.00,65.08
1122.00,63.67
1121.00,62.26
1120.00,60.84
1119.00,59.46
1118.00,58.14
1117.00,56.87
1116.00,55.65
1115.00,54.51
1114.00,53.46
1113.00,52.50
1112.00,51.63
1111.00,50.89
1110.00,50.28
1109.00,49.77
1108.00,49.33
1107.00,48.96
1106.00,48.65
1105.00,48.35
1104.00,48.06
1103.00,47.80
1102.00,47.57
1101.00,47.40
1100.00,47.28
1099.00,47.27
1098.00,47.40
1097.00,47.65
1096.00,48.00
1095.00,48.46
1094.00,49.01
1093.00,49.60
1092.00,50.17
1091.00,50.68
1090.00,51.10
1089.00,51.38
1088.00,51.55
1087.00,51.69
1086.00,51.89
1085.00,52.17
1084.00,52.60
1083.00,53.19
1082.00,53.97
1081.00,54.91
1080.00,55.97
1079.00,57.14
1078.00,58.39
1077.00,59.67
1076.00,60.94
1075.00,62.17
1074.00,63.34
1073.00,64.41
1072.00,65.36
1071.00,66.18
1070.00,66.87
1069.00,67.42
1068.00,67.83
1067.00,68.14
1066.00,68.36
1065.00,68.51
1064.00,68.60
1063.00,68.65
1062.00,68.67
1061.00,68.66
1060.00,68.62
1059.00,68.57
1058.00,68.50
1057.00,68.39
1056.00,68.19
1055.00,67.89
1054.00,67.49
1053.00,66.99
1052.00,66.42
1051.00,65.84
1050.00,65.31
1049.00,64.84
1048.00,64.46
1047.00,64.20
1046.00,64.05
1045.00,63.99
1044.00,64.02
1043.00,64.13
1042.00,64.30
1041.00,64.54
1040.00,64.83
1039.00,65.17
1038.00,65.56
1037.00,66.00
1036.00,66.48
1035.00,67.06
1034.00,67.76
1033.00,68.62
1032.00,69.60
1031.00,70.68
1030.00,71.81
1029.00,72.92
1028.00,73.97
1027.00,74.94
1026.00,75.82
1025.00,76.57
1024.00,77.18
1023.00,77.66
1022.00,77.98
1021.00,78.17
1020.00,78.23
1019.00,78.17
1018.00,78.02
1017.00,77.80
1016.00,77.52
1015.00,77.23
1014.00,76.95
1013.00,76.71
1012.00,76.54
1011.00,76.46
1010.00,76.48
1009.00,76.60
1008.00,76.82
1007.00,77.12
1006.00,77.47
1005.00,77.86
1004.00,78.27
1003.00,78.69
1002.00,79.11
1001.00,79.51
1000.00,79.87
999.00,80.19
998.00,80.45
997.00,80.65
996.00,80.77
995.00,80.83
994.00,80.80
993.00,80.69
992.00,80.50
991.00,80.20
990.00,79.82
989.00,79.36
988.00,78.83
987.00,78.25
986.00,77.63
985.00,77.01
984.00,76.42
983.00,75.92
982.00,75.56
981.00,75.37
980.00,75.34
979.00,75.48
978.00,75.76
977.00,76.14
976.00,76.56
975.00,76.97
974.00,77.36
973.00,77.70
972.00,77.99
971.00,78.24
970.00,78.46
969.00,78.66
968.00,78.84
967.00,79.01
966.00,79.18
965.00,79.34
964.00,79.50
963.00,79.66
962.00,79.80
961.00,79.93
960.00,80.06
959.00,80.18
958.00,80.32
957.00,80.48
956.00,80.67
955.00,80.88
954.00,81.14
953.00,81.46
952.00,81.83
951.00,82.25
950.00,82.71
949.00,83.19
948.00,83.66
947.00,84.10
946.00,84.52
945.00,84.90
944.00,85.26
943.00,85.58
942.00,85.89
941.00,86.18
940.00,86.44
939.00,86.68
938.00,86.90
937.00,87.10
936.00,87.27
935.00,87.41
934.00,87.52
933.00,87.65
932.00,87.82
931.00,88.06
930.00,88.39
929.00,88.81
928.00,89.29
927.00,89.80
926.00,90.29
925.00,90.76
924.00,91.16
923.00,91.49
922.00,91.76
921.00,91.99
920.00,92.18
919.00,92.33
918.00,92.45
917.00,92.57
916.00,92.70
915.00,92.83
914.00,92.96
913.00,93.09
912.00,93.20
911.00,93.27
910.00,93.29
909.00,93.25
908.00,93.14
907.00,92.93
906.00,92.62
905.00,92.23
904.00,91.80
903.00,91.33
902.00,90.90
901.00,90.57
900.00,90.41
899.00,90.45
898.00,90.70
897.00,91.08
896.00,91.53
895.00,91.95
894.00,92.30
893.00,92.56
892.00,92.76
891.00,92.91
890.00,93.04
889.00,93.18
888.00,93.34
887.00,93.51
886.00,93.67
885.00,93.83
884.00,93.98
883.00,94.10
882.00,94.21
881.00,94.30
880.00,94.37
879.00,94.42
878.00,94.47
877.00,94.53
876.00,94.60
875.00,94.67
874.00,94.75
873.00,94.84
872.00,94.94
871.00,95.02
870.00,95.10
869.00,95.17
868.00,95.23
867.00,95.27
866.00,95.29
865.00,95.30
864.00,95.30
863.00,95.30
862.00,95.28
861.00,95.26
860.00,95.24
859.00,95.20
858.00,95.15
857.00,95.09
856.00,95.03
855.00,94.96
854.00,94.88
853.00,94.81
852.00,94.75
851.00,94.72
850.00,94.73
849.00,94.78
848.00,94.85
847.00,94.91
846.00,94.95
845.00,94.97
844.00,94.98
843.00,94.99
842.00,95.00
841.00,95.00
840.00,95.00
839.00,94.98
838.00,94.95
837.00,94.92
836.00,94.90
835.00,94.88
834.00,94.86
833.00,94.84
832.00,94.84
831.00,94.84
830.00,94.84
829.00,94.85
828.00,94.86
827.00,94.87
826.00,94.86
825.00,94.85
824.00,94.84
823.00,94.82
822.00,94.79
821.00,94.77
820.00,94.76
819.00,94.75
818.00,94.73
817.00,94.73
816.00,94.75
815.00,94.77
814.00,94.81
813.00,94.86
812.00,94.93
811.00,95.00
810.00,95.07
809.00,95.15
808.00,95.22
807.00,95.27
806.00,95.28
805.00,95.29
804.00,95.28
803.00,95.26
802.00,95.23
801.00,95.21
800.00,95.18
799.00,95.14
798.00,95.07
797.00,95.00
796.00,94.92
795.00,94.79
794.00,94.60
793.00,94.32
792.00,93.92
791.00,93.37
790.00,92.64
789.00,91.74
788.00,90.66
787.00,89.44
786.00,88.09
785.00,86.70
784.00,85.36
783.00,84.18
782.00,83.27
781.00,82.67
780.00,82.41
779.00,82.45
778.00,82.77
777.00,83.31
776.00,84.04
775.00,84.88
774.00,85.77
773.00,86.68
772.00,87.55
771.00,88.37
770.00,89.12
769.00,89.81
768.00,90.42
767.00,90.93
766.00,91.35
765.00,91.68
764.00,91.93
763.00,92.10
762.00,92.20
761.00,92.23
760.00,92.21
759.00,92.14
758.00,92.03
757.00,91.89
756.00,91.75
755.00,91.62
754.00,91.51
753.00,91.42
752.00,91.34
751.00,91.28
750.00,91.23
749.00,91.20
748.00,91.19
747.00,91.21
746.00,91.23
745.00,91.26
744.00,91.29
743.00,91.31
742.00,91.31
741.00,91.28
740.00,91.22
739.00,91.15
738.00,91.06
737.00,90.93
736.00,90.76
735.00,90.50
734.00,90.20
733.00,89.91
732.00,89.71
731.00,89.64
730.00,89.69
729.00,89.83
728.00,89.98
727.00,90.11
726.00,90.20
725.00,90.22
724.00,90.16
723.00,89.98
722.00,89.67
721.00,89.27
720.00,88.93
719.00,88.81
718.00,88.98
717.00,89.36
716.00,89.77
715.00,90.08
714.00,90.23
713.00,90.27
712.00,90.24
711.00,90.17
710.00,90.08
709.00,89.96
708.00,89.81
707.00,89.61
706.00,89.35
705.00,89.06
704.00,88.73
703.00,88.37
702.00,88.02
701.00,87.73
700.00,87.55
699.00,87.46
698.00,87.46
697.00,87.54
696.00,87.68
695.00,87.85
694.00,88.03
693.00,88.20
692.00,88.33
691.00,88.40
690.00,88.42
689.00,88.41
688.00,88.36
687.00,88.27
686.00,88.14
685.00,87.99
684.00,87.81
683.00,87.63
682.00,87.44
681.00,87.27
680.00,87.10
679.00,86.94
678.00,86.77
677.00,86.61
676.00,86.45
675.00,86.28
674.00,86.11
673.00,85.97
672.00,85.85
671.00,85.76
670.00,85.66
669.00,85.50
668.00,85.30
667.00,85.15
666.00,85.07
665.00,85.02
664.00,84.96
663.00,84.88
662.00,84.77
661.00,84.67
660.00,84.55
659.00,84.42
658.00,84.30
657.00,84.20
656.00,84.11
655.00,84.05
654.00,83.98
653.00,83.93
652.00,83.88
651.00,83.84
650.00,83.80
