Created as New Dataset,PVA 100K Sigma
cm-1,%T
4000.00,99.87
3999.00,99.87
3998.00,99.87
3997.00,99.87
3996.00,99.87
3995.00,99.87
3994.00,99.86
3993.00,99.86
3992.00,99.86
3991.00,99.86
3990.00,99.85
3989.00,99.85
3988.00,99.85
3987.00,99.85
3986.00,99.85
3985.00,99.85
3984.00,99.85
3983.00,99.85
3982.00,99.85
3981.00,99.85
3980.00,99.85
3979.00,99.85
3978.00,99.85
3977.00,99.85
3976.00,99.85
3975.00,99.85
3974.00,99.85
3973.00,99.85
3972.00,99.85
3971.00,99.85
3970.00,99.85
3969.00,99.85
3968.00,99.85
3967.00,99.86
3966.00,99.86
3965.00,99.86
3964.00,99.86
3963.00,99.86
3962.00,99.85
3961.00,99.85
3960.00,99.85
3959.00,99.86
3958.00,99.86
3957.00,99.86
3956.00,99.86
3955.00,99.85
3954.00,99.85
3953.00,99.85
3952.00,99.85
3951.00,99.85
3950.00,99.85
3949.00,99.86
3948.00,99.86
3947.00,99.86
3946.00,99.86
3945.00,99.86
3944.00,99.86
3943.00,99.86
3942.00,99.86
3941.00,99.86
3940.00,99.86
3939.00,99.86
3938.00,99.86
3937.00,99.86
3936.00,99.86
3935.00,99.86
3934.00,99.86
3933.00,99.86
3932.00,99.86
3931.00,99.86
3930.00,99.86
3929.00,99.86
3928.00,99.86
3927.00,99.86
3926.00,99.85
3925.00,99.85
3924.00,99.86
3923.00,99.86
3922.00,99.85
3921.00,99.85
3920.00,99.85
3919.00,99.85
3918.00,99.85
3917.00,99.85
3916.00,99.86
3915.00,99.86
3914.00,99.86
3913.00,99.86
3912.00,99.85
3911.00,99.85
3910.00,99.85
3909.00,99.85
3908.00,99.85
3907.00,99.85
3906.00,99.85
3905.00,99.85
3904.00,99.85
3903.00,99.85
3902.00,99.84
3901.00,99.84
3900.00,99.83
3899.00,99.83
3898.00,99.84
3897.00,99.84
3896.00,99.85
3895.00,99.85
3894.00,99.85
3893.00,99.85
3892.00,99.85
3891.00,99.85
3890.00,99.85
3889.00,99.85
3888.00,99.85
3887.00,99.85
3886.00,99.85
3885.00,99.85
3884.00,99.85
3883.00,99.84
3882.00,99.84
3881.00,99.84
3880.00,99.85
3879.00,99.85
3878.00,99.85
3877.00,99.85
3876.00,99.84
3875.00,99.84
3874.00,99.84
3873.00,99.83
3872.00,99.83
3871.00,99.83
3870.00,99.83
3869.00,99.83
3868.00,99.83
3867.00,99.83
3866.00,99.83
3865.00,99.84
3864.00,99.84
3863.00,99.84
3862.00,99.84
3861.00,99.84
3860.00,99.84
3859.00,99.84
3858.00,99.84
3857.00,99.83
3856.00,99.82
3855.00,99.82
3854.00,99.82
3853.00,99.83
3852.00,99.83
3851.00,99.83
3850.00,99.84
3849.00,99.84
3848.00,99.84
3847.00,99.84
3846.00,99.84
3845.00,99.84
3844.00,99.84
3843.00,99.83
3842.00,99.83
3841.00,99.82
3840.00,99.82
3839.00,99.82
3838.00,99.82
3837.00,99.83
3836.00,99.83
3835.00,99.83
3834.00,99.83
3833.00,99.83
3832.00,99.83
3831.00,99.84
3830.00,99.84
3829.00,99.83
3828.00,99.83
3827.00,99.84
3826.00,99.84
3825.00,99.83
3824.00,99.83
3823.00,99.82
3822.00,99.82
3821.00,99.82
3820.00,99.82
3819.00,99.82
3818.00,99.82
3817.00,99.82
3816.00,99.83
3815.00,99.83
3814.00,99.83
3813.00,99.83
3812.00,99.83
3811.00,99.83
3810.00,99.84
3809.00,99.83
3808.00,99.83
3807.00,99.82
3806.00,99.82
3805.00,99.81
3804.00,99.81
3803.00,99.80
3802.00,99.81
3801.00,99.81
3800.00,99.82
3799.00,99.82
3798.00,99.82
3797.00,99.82
3796.00,99.82
3795.00,99.82
3794.00,99.82
3793.00,99.83
3792.00,99.83
3791.00,99.83
3790.00,99.83
3789.00,99.83
3788.00,99.83
3787.00,99.83
3786.00,99.83
3785.00,99.83
3784.00,99.83
3783.00,99.83
3782.00,99.83
3781.00,99.82
3780.00,99.82
3779.00,99.82
3778.00,99.82
3777.00,99.82
3776.00,99.82
3775.00,99.82
3774.00,99.83
3773.00,99.83
3772.00,99.83
3771.00,99.82
3770.00,99.82
3769.00,99.82
3768.00,99.81
3767.00,99.81
3766.00,99.81
3765.00,99.82
3764.00,99.82
3763.00,99.82
3762.00,99.82
3761.00,99.82
3760.00,99.82
3759.00,99.82
3758.00,99.81
3757.00,99.81
3756.00,99.80
3755.00,99.80
3754.00,99.79
3753.00,99.79
3752.00,99.79
3751.00,99.78
3750.00,99.78
3749.00,99.78
3748.00,99.78
3747.00,99.78
3746.00,99.78
3745.00,99.79
3744.00,99.80
3743.00,99.80
3742.00,99.80
3741.00,99.80
3740.00,99.80
3739.00,99.80
3738.00,99.80
3737.00,99.80
3736.00,99.79
3735.00,99.79
3734.00,99.79
3733.00,99.79
3732.00,99.80
3731.00,99.80
3730.00,99.81
3729.00,99.81
3728.00,99.81
3727.00,99.81
3726.00,99.81
3725.00,99.81
3724.00,99.81
3723.00,99.81
3722.00,99.81
3721.00,99.81
3720.00,99.81
3719.00,99.81
3718.00,99.81
3717.00,99.81
3716.00,99.82
3715.00,99.82
3714.00,99.82
3713.00,99.82
3712.00,99.82
3711.00,99.82
3710.00,99.81
3709.00,99.82
3708.00,99.82
3707.00,99.82
3706.00,99.82
3705.00,99.82
3704.00,99.81
3703.00,99.81
3702.00,99.81
3701.00,99.82
3700.00,99.82
3699.00,99.82
3698.00,99.82
3697.00,99.82
3696.00,99.82
3695.00,99.81
3694.00,99.81
3693.00,99.80
3692.00,99.80
3691.00,99.80
3690.00,99.79
3689.00,99.79
3688.00,99.79
3687.00,99.79
3686.00,99.79
3685.00,99.79
3684.00,99.79
3683.00,99.79
3682.00,99.78
3681.00,99.78
3680.00,99.77
3679.00,99.77
3678.00,99.76
3677.00,99.75
3676.00,99.75
3675.00,99.74
3674.00,99.74
3673.00,99.73
3672.00,99.72
3671.00,99.71
3670.00,99.71
3669.00,99.71
3668.00,99.71
3667.00,99.71
3666.00,99.71
3665.00,99.71
3664.00,99.71
3663.00,99.71
3662.00,99.70
3661.00,99.70
3660.00,99.70
3659.00,99.69
3658.00,99.68
3657.00,99.67
3656.00,99.66
3655.00,99.65
3654.00,99.65
3653.00,99.64
3652.00,99.63
3651.00,99.63
3650.00,99.62
3649.00,99.61
3648.00,99.60
3647.00,99.59
3646.00,99.59
3645.00,99.59
3644.00,99.59
3643.00,99.59
3642.00,99.60
3641.00,99.60
3640.00,99.60
3639.00,99.60
3638.00,99.60
3637.00,99.59
3636.00,99.59
3635.00,99.59
3634.00,99.59
3633.00,99.59
3632.00,99.59
3631.00,99.58
3630.00,99.57
3629.00,99.57
3628.00,99.57
3627.00,99.56
3626.00,99.56
3625.00,99.56
3624.00,99.56
3623.00,99.57
3622.00,99.57
3621.00,99.57
3620.00,99.57
3619.00,99.57
3618.00,99.57
3617.00,99.56
3616.00,99.56
3615.00,99.56
3614.00,99.57
3613.00,99.57
3612.00,99.57
3611.00,99.57
3610.00,99.58
3609.00,99.58
3608.00,99.59
3607.00,99.60
3606.00,99.61
3605.00,99.61
3604.00,99.62
3603.00,99.62
3602.00,99.62
3601.00,99.62
3600.00,99.62
3599.00,99.62
3598.00,99.63
3597.00,99.63
3596.00,99.64
3595.00,99.65
3594.00,99.65
3593.00,99.65
3592.00,99.65
3591.00,99.65
3590.00,99.66
3589.00,99.66
3588.00,99.66
3587.00,99.66
3586.00,99.66
3585.00,99.66
3584.00,99.66
3583.00,99.66
3582.00,99.66
3581.00,99.67
3580.00,99.67
3579.00,99.67
3578.00,99.68
3577.00,99.68
3576.00,99.68
3575.00,99.68
3574.00,99.68
3573.00,99.68
3572.00,99.67
3571.00,99.67
3570.00,99.67
3569.00,99.66
3568.00,99.65
3567.00,99.64
3566.00,99.64
3565.00,99.64
3564.00,99.65
3563.00,99.65
3562.00,99.65
3561.00,99.65
3560.00,99.65
3559.00,99.65
3558.00,99.65
3557.00,99.65
3556.00,99.64
3555.00,99.64
3554.00,99.64
3553.00,99.64
3552.00,99.64
3551.00,99.64
3550.00,99.64
3549.00,99.64
3548.00,99.64
3547.00,99.64
3546.00,99.64
3545.00,99.64
3544.00,99.63
3543.00,99.63
3542.00,99.63
3541.00,99.64
3540.00,99.64
3539.00,99.65
3538.00,99.65
3537.00,99.65
3536.00,99.65
3535.00,99.64
3534.00,99.64
3533.00,99.64
3532.00,99.65
3531.00,99.65
3530.00,99.65
3529.00,99.65
3528.00,99.65
3527.00,99.64
3526.00,99.64
3525.00,99.65
3524.00,99.65
3523.00,99.65
3522.00,99.65
3521.00,99.65
3520.00,99.65
3519.00,99.65
3518.00,99.66
3517.00,99.66
3516.00,99.67
3515.00,99.67
3514.00,99.66
3513.00,99.66
3512.00,99.65
3511.00,99.65
3510.00,99.65
3509.00,99.65
3508.00,99.65
3507.00,99.65
3506.00,99.65
3505.00,99.66
3504.00,99.66
3503.00,99.67
3502.00,99.67
3501.00,99.67
3500.00,99.67
3499.00,99.67
3498.00,99.67
3497.00,99.66
3496.00,99.67
3495.00,99.67
3494.00,99.67
3493.00,99.67
3492.00,99.66
3491.00,99.66
3490.00,99.66
3489.00,99.65
3488.00,99.65
3487.00,99.65
3486.00,99.65
3485.00,99.65
3484.00,99.65
3483.00,99.65
3482.00,99.64
3481.00,99.64
3480.00,99.63
3479.00,99.63
3478.00,99.62
3477.00,99.61
3476.00,99.60
3475.00,99.59
3474.00,99.59
3473.00,99.59
3472.00,99.58
3471.00,99.59
3470.00,99.58
3469.00,99.58
3468.00,99.58
3467.00,99.57
3466.00,99.56
3465.00,99.55
3464.00,99.55
3463.00,99.55
3462.00,99.55
3461.00,99.54
3460.00,99.53
3459.00,99.53
3458.00,99.52
3457.00,99.52
3456.00,99.52
3455.00,99.51
3454.00,99.51
3453.00,99.51
3452.00,99.51
3451.00,99.52
3450.00,99.52
3449.00,99.53
3448.00,99.53
3447.00,99.54
3446.00,99.54
3445.00,99.55
3444.00,99.55
3443.00,99.56
3442.00,99.57
3441.00,99.58
3440.00,99.59
3439.00,99.61
3438.00,99.62
3437.00,99.63
3436.00,99.64
3435.00,99.64
3434.00,99.64
3433.00,99.65
3432.00,99.65
3431.00,99.65
3430.00,99.66
3429.00,99.66
3428.00,99.66
3427.00,99.66
3426.00,99.67
3425.00,99.67
3424.00,99.67
3423.00,99.68
3422.00,99.68
3421.00,99.68
3420.00,99.69
3419.00,99.69
3418.00,99.69
3417.00,99.70
3416.00,99.70
3415.00,99.71
3414.00,99.71
3413.00,99.71
3412.00,99.71
3411.00,99.71
3410.00,99.71
3409.00,99.71
3408.00,99.71
3407.00,99.71
3406.00,99.72
3405.00,99.72
3404.00,99.73
3403.00,99.73
3402.00,99.74
3401.00,99.74
3400.00,99.74
3399.00,99.74
3398.00,99.74
3397.00,99.74
3396.00,99.74
3395.00,99.74
3394.00,99.74
3393.00,99.74
3392.00,99.74
3391.00,99.74
3390.00,99.74
3389.00,99.74
3388.00,99.74
3387.00,99.74
3386.00,99.74
3385.00,99.74
3384.00,99.74
3383.00,99.74
3382.00,99.74
3381.00,99.75
3380.00,99.75
3379.00,99.75
3378.00,99.75
3377.00,99.75
3376.00,99.74
3375.00,99.74
3374.00,99.75
3373.00,99.75
3372.00,99.75
3371.00,99.75
3370.00,99.74
3369.00,99.75
3368.00,99.75
3367.00,99.75
3366.00,99.75
3365.00,99.75
3364.00,99.75
3363.00,99.75
3362.00,99.75
3361.00,99.75
3360.00,99.75
3359.00,99.75
3358.00,99.75
3357.00,99.75
3356.00,99.75
3355.00,99.75
3354.00,99.76
3353.00,99.76
3352.00,99.76
3351.00,99.76
3350.00,99.75
3349.00,99.75
3348.00,99.75
3347.00,99.75
3346.00,99.76
3345.00,99.76
3344.00,99.76
3343.00,99.76
3342.00,99.76
3341.00,99.76
3340.00,99.76
3339.00,99.76
3338.00,99.76
3337.00,99.76
3336.00,99.76
3335.00,99.76
3334.00,99.76
3333.00,99.76
3332.00,99.76
3331.00,99.77
3330.00,99.77
3329.00,99.76
3328.00,99.76
3327.00,99.76
3326.00,99.76
3325.00,99.76
3324.00,99.76
3323.00,99.76
3322.00,99.76
3321.00,99.76
3320.00,99.75
3319.00,99.76
3318.00,99.76
3317.00,99.76
3316.00,99.77
3315.00,99.77
3314.00,99.77
3313.00,99.77
3312.00,99.77
3311.00,99.77
3310.00,99.77
3309.00,99.77
3308.00,99.76
3307.00,99.76
3306.00,99.76
3305.00,99.76
3304.00,99.76
3303.00,99.76
3302.00,99.76
3301.00,99.76
3300.00,99.77
3299.00,99.77
3298.00,99.76
3297.00,99.76
3296.00,99.76
3295.00,99.76
3294.00,99.76
3293.00,99.76
3292.00,99.75
3291.00,99.76
3290.00,99.76
3289.00,99.76
3288.00,99.76
3287.00,99.76
3286.00,99.76
3285.00,99.76
3284.00,99.76
3283.00,99.76
3282.00,99.76
3281.00,99.75
3280.00,99.75
3279.00,99.75
3278.00,99.76
3277.00,99.76
3276.00,99.76
3275.00,99.76
3274.00,99.76
3273.00,99.75
3272.00,99.75
3271.00,99.75
3270.00,99.75
3269.00,99.75
3268.00,99.76
3267.00,99.76
3266.00,99.76
3265.00,99.76
3264.00,99.75
3263.00,99.75
3262.00,99.75
3261.00,99.75
3260.00,99.75
3259.00,99.76
3258.00,99.76
3257.00,99.76
3256.00,99.76
3255.00,99.76
3254.00,99.76
3253.00,99.76
3252.00,99.76
3251.00,99.76
3250.00,99.76
3249.00,99.76
3248.00,99.76
3247.00,99.76
3246.00,99.76
3245.00,99.76
3244.00,99.76
3243.00,99.76
3242.00,99.76
3241.00,99.76
3240.00,99.76
3239.00,99.76
3238.00,99.76
3237.00,99.76
3236.00,99.76
3235.00,99.76
3234.00,99.76
3233.00,99.75
3232.00,99.75
3231.00,99.75
3230.00,99.75
3229.00,99.75
3228.00,99.76
3227.00,99.76
3226.00,99.76
3225.00,99.76
3224.00,99.76
3223.00,99.76
3222.00,99.76
3221.00,99.75
3220.00,99.75
3219.00,99.75
3218.00,99.75
3217.00,99.75
3216.00,99.75
3215.00,99.75
3214.00,99.75
3213.00,99.75
3212.00,99.75
3211.00,99.76
3210.00,99.76
3209.00,99.76
3208.00,99.76
3207.00,99.76
3206.00,99.75
3205.00,99.75
3204.00,99.75
3203.00,99.75
3202.00,99.75
3201.00,99.75
3200.00,99.75
3199.00,99.75
3198.00,99.75
3197.00,99.75
3196.00,99.75
3195.00,99.75
3194.00,99.75
3193.00,99.75
3192.00,99.75
3191.00,99.75
3190.00,99.75
3189.00,99.75
3188.00,99.75
3187.00,99.75
3186.00,99.75
3185.00,99.74
3184.00,99.74
3183.00,99.75
3182.00,99.75
3181.00,99.75
3180.00,99.75
3179.00,99.75
3178.00,99.75
3177.00,99.75
3176.00,99.74
3175.00,99.74
3174.00,99.75
3173.00,99.75
3172.00,99.75
3171.00,99.75
3170.00,99.75
3169.00,99.75
3168.00,99.75
3167.00,99.75
3166.00,99.75
3165.00,99.74
3164.00,99.74
3163.00,99.74
3162.00,99.74
3161.00,99.74
3160.00,99.74
3159.00,99.74
3158.00,99.74
3157.00,99.74
3156.00,99.74
3155.00,99.74
3154.00,99.74
3153.00,99.74
3152.00,99.74
3151.00,99.74
3150.00,99.74
3149.00,99.74
3148.00,99.74
3147.00,99.74
3146.00,99.74
3145.00,99.74
3144.00,99.74
3143.00,99.74
3142.00,99.73
3141.00,99.73
3140.00,99.73
3139.00,99.73
3138.00,99.73
3137.00,99.73
3136.00,99.73
3135.00,99.73
3134.00,99.73
3133.00,99.73
3132.00,99.73
3131.00,99.72
3130.00,99.72
3129.00,99.72
3128.00,99.73
3127.00,99.73
3126.00,99.72
3125.00,99.72
3124.00,99.72
3123.00,99.72
3122.00,99.72
3121.00,99.72
3120.00,99.72
3119.00,99.72
3118.00,99.72
3117.00,99.72
3116.00,99.72
3115.00,99.72
3114.00,99.71
3113.00,99.71
3112.00,99.72
3111.00,99.72
3110.00,99.71
3109.00,99.71
3108.00,99.71
3107.00,99.70
3106.00,99.70
3105.00,99.70
3104.00,99.70
3103.00,99.70
3102.00,99.70
3101.00,99.70
3100.00,99.69
3099.00,99.69
3098.00,99.69
3097.00,99.69
3096.00,99.69
3095.00,99.68
3094.00,99.68
3093.00,99.68
3092.00,99.68
3091.00,99.68
3090.00,99.67
3089.00,99.67
3088.00,99.67
3087.00,99.67
3086.00,99.67
3085.00,99.68
3084.00,99.67
3083.00,99.67
3082.00,99.67
3081.00,99.67
3080.00,99.66
3079.00,99.66
3078.00,99.66
3077.00,99.66
3076.00,99.66
3075.00,99.66
3074.00,99.66
3073.00,99.65
3072.00,99.65
3071.00,99.65
3070.00,99.65
3069.00,99.65
3068.00,99.66
3067.00,99.66
3066.00,99.66
3065.00,99.65
3064.00,99.65
3063.00,99.64
3062.00,99.64
3061.00,99.63
3060.00,99.63
3059.00,99.62
3058.00,99.62
3057.00,99.62
3056.00,99.61
3055.00,99.61
3054.00,99.61
3053.00,99.61
3052.00,99.61
3051.00,99.60
3050.00,99.60
3049.00,99.60
3048.00,99.59
3047.00,99.59
3046.00,99.58
3045.00,99.58
3044.00,99.57
3043.00,99.57
3042.00,99.56
3041.00,99.55
3040.00,99.55
3039.00,99.54
3038.00,99.53
3037.00,99.53
3036.00,99.52
3035.00,99.51
3034.00,99.50
3033.00,99.49
3032.00,99.48
3031.00,99.47
3030.00,99.46
3029.00,99.45
3028.00,99.45
3027.00,99.44
3026.00,99.43
3025.00,99.43
3024.00,99.42
3023.00,99.41
3022.00,99.41
3021.00,99.40
3020.00,99.40
3019.00,99.40
3018.00,99.40
3017.00,99.40
3016.00,99.39
3015.00,99.39
3014.00,99.39
3013.00,99.38
3012.00,99.37
3011.00,99.37
3010.00,99.36
3009.00,99.36
3008.00,99.35
3007.00,99.34
3006.00,99.32
3005.00,99.30
3004.00,99.28
3003.00,99.26
3002.00,99.24
3001.00,99.22
3000.00,99.20
2999.00,99.18
2998.00,99.15
2997.00,99.12
2996.00,99.09
2995.00,99.06
2994.00,99.03
2993.00,98.99
2992.00,98.96
2991.00,98.93
2990.00,98.90
2989.00,98.86
2988.00,98.83
2987.00,98.80
2986.00,98.78
2985.00,98.75
2984.00,98.72
2983.00,98.69
2982.00,98.66
2981.00,98.65
2980.00,98.64
2979.00,98.63
2978.00,98.62
2977.00,98.62
2976.00,98.61
2975.00,98.60
2974.00,98.60
2973.00,98.59
2972.00,98.59
2971.00,98.60
2970.00,98.60
2969.00,98.61
2968.00,98.62
2967.00,98.62
2966.00,98.63
2965.00,98.64
2964.00,98.65
2963.00,98.65
2962.00,98.65
2961.00,98.66
2960.00,98.66
2959.00,98.66
2958.00,98.66
2957.00,98.67
2956.00,98.67
2955.00,98.66
2954.00,98.65
2953.00,98.64
2952.00,98.63
2951.00,98.61
2950.00,98.60
2949.00,98.58
2948.00,98.56
2947.00,98.55
2946.00,98.53
2945.00,98.51
2944.00,98.49
2943.00,98.47
2942.00,98.45
2941.00,98.43
2940.00,98.42
2939.00,98.41
2938.00,98.40
2937.00,98.39
2936.00,98.39
2935.00,98.38
2934.00,98.37
2933.00,98.36
2932.00,98.36
2931.00,98.36
2930.00,98.36
2929.00,98.36
2928.00,98.36
2927.00,98.36
2926.00,98.37
2925.00,98.38
2924.00,98.40
2923.00,98.43
2922.00,98.46
2921.00,98.49
2920.00,98.53
2919.00,98.58
2918.00,98.64
2917.00,98.70
2916.00,98.76
2915.00,98.82
2914.00,98.88
2913.00,98.94
2912.00,99.00
2911.00,99.05
2910.00,99.10
2909.00,99.15
2908.00,99.20
2907.00,99.24
2906.00,99.27
2905.00,99.30
2904.00,99.33
2903.00,99.35
2902.00,99.37
2901.00,99.39
2900.00,99.41
2899.00,99.42
2898.00,99.43
2897.00,99.44
2896.00,99.44
2895.00,99.45
2894.00,99.45
2893.00,99.46
2892.00,99.46
2891.00,99.47
2890.00,99.47
2889.00,99.48
2888.00,99.48
2887.00,99.48
2886.00,99.48
2885.00,99.48
2884.00,99.48
2883.00,99.48
2882.00,99.49
2881.00,99.49
2880.00,99.49
2879.00,99.48
2878.00,99.48
2877.00,99.48
2876.00,99.48
2875.00,99.48
2874.00,99.47
2873.00,99.47
2872.00,99.47
2871.00,99.47
2870.00,99.47
2869.00,99.47
2868.00,99.47
2867.00,99.46
2866.00,99.46
2865.00,99.46
2864.00,99.45
2863.00,99.45
2862.00,99.45
2861.00,99.45
2860.00,99.45
2859.00,99.45
2858.00,99.45
2857.00,99.45
2856.00,99.45
2855.00,99.45
2854.00,99.45
2853.00,99.46
2852.00,99.46
2851.00,99.47
2850.00,99.47
2849.00,99.48
2848.00,99.50
2847.00,99.51
2846.00,99.52
2845.00,99.53
2844.00,99.53
2843.00,99.54
2842.00,99.55
2841.00,99.56
2840.00,99.57
2839.00,99.57
2838.00,99.58
2837.00,99.59
2836.00,99.59
2835.00,99.60
2834.00,99.61
2833.00,99.61
2832.00,99.62
2831.00,99.62
2830.00,99.63
2829.00,99.63
2828.00,99.63
2827.00,99.64
2826.00,99.64
2825.00,99.65
2824.00,99.65
2823.00,99.65
2822.00,99.66
2821.00,99.66
2820.00,99.66
2819.00,99.67
2818.00,99.67
2817.00,99.67
2816.00,99.67
2815.00,99.67
2814.00,99.67
2813.00,99.68
2812.00,99.68
2811.00,99.68
2810.00,99.68
2809.00,99.68
2808.00,99.68
2807.00,99.68
2806.00,99.68
2805.00,99.68
2804.00,99.68
2803.00,99.68
2802.00,99.69
2801.00,99.69
2800.00,99.69
2799.00,99.69
2798.00,99.69
2797.00,99.69
2796.00,99.69
2795.00,99.69
2794.00,99.69
2793.00,99.69
2792.00,99.69
2791.00,99.69
2790.00,99.69
2789.00,99.69
2788.00,99.69
2787.00,99.69
2786.00,99.69
2785.00,99.69
2784.00,99.69
2783.00,99.68
2782.00,99.68
2781.00,99.68
2780.00,99.68
2779.00,99.69
2778.00,99.69
2777.00,99.69
2776.00,99.68
2775.00,99.68
2774.00,99.68
2773.00,99.68
2772.00,99.68
2771.00,99.68
2770.00,99.68
2769.00,99.68
2768.00,99.68
2767.00,99.68
2766.00,99.68
2765.00,99.68
2764.00,99.68
2763.00,99.68
2762.00,99.68
2761.00,99.68
2760.00,99.68
2759.00,99.68
2758.00,99.68
2757.00,99.68
2756.00,99.68
2755.00,99.68
2754.00,99.68
2753.00,99.68
2752.00,99.68
2751.00,99.68
2750.00,99.68
2749.00,99.68
2748.00,99.68
2747.00,99.68
2746.00,99.68
2745.00,99.69
2744.00,99.69
2743.00,99.69
2742.00,99.69
2741.00,99.69
2740.00,99.69
2739.00,99.69
2738.00,99.69
2737.00,99.69
2736.00,99.69
2735.00,99.70
2734.00,99.70
2733.00,99.70
2732.00,99.70
2731.00,99.70
2730.00,99.70
2729.00,99.70
2728.00,99.70
2727.00,99.70
2726.00,99.70
2725.00,99.70
2724.00,99.70
2723.00,99.70
2722.00,99.70
2721.00,99.70
2720.00,99.70
2719.00,99.70
2718.00,99.71
2717.00,99.71
2716.00,99.71
2715.00,99.71
2714.00,99.71
2713.00,99.71
2712.00,99.71
2711.00,99.71
2710.00,99.71
2709.00,99.71
2708.00,99.71
2707.00,99.71
2706.00,99.71
2705.00,99.71
2704.00,99.71
2703.00,99.71
2702.00,99.70
2701.00,99.71
2700.00,99.71
2699.00,99.71
2698.00,99.71
2697.00,99.71
2696.00,99.70
2695.00,99.70
2694.00,99.70
2693.00,99.70
2692.00,99.70
2691.00,99.69
2690.00,99.69
2689.00,99.70
2688.00,99.70
2687.00,99.70
2686.00,99.70
2685.00,99.70
2684.00,99.70
2683.00,99.70
2682.00,99.70
2681.00,99.70
2680.00,99.69
2679.00,99.69
2678.00,99.69
2677.00,99.69
2676.00,99.69
2675.00,99.69
2674.00,99.69
2673.00,99.70
2672.00,99.70
2671.00,99.70
2670.00,99.69
2669.00,99.69
2668.00,99.69
2667.00,99.69
2666.00,99.69
2665.00,99.69
2664.00,99.69
2663.00,99.68
2662.00,99.67
2661.00,99.66
2660.00,99.66
2659.00,99.65
2658.00,99.65
2657.00,99.65
2656.00,99.64
2655.00,99.64
2654.00,99.64
2653.00,99.64
2652.00,99.64
2651.00,99.64
2650.00,99.64
2649.00,99.64
2648.00,99.64
2647.00,99.64
2646.00,99.64
2645.00,99.64
2644.00,99.64
2643.00,99.64
2642.00,99.64
2641.00,99.63
2640.00,99.63
2639.00,99.64
2638.00,99.64
2637.00,99.64
2636.00,99.64
2635.00,99.64
2634.00,99.64
2633.00,99.64
2632.00,99.64
2631.00,99.64
2630.00,99.64
2629.00,99.64
2628.00,99.64
2627.00,99.64
2626.00,99.64
2625.00,99.64
2624.00,99.64
2623.00,99.64
2622.00,99.63
2621.00,99.64
2620.00,99.64
2619.00,99.64
2618.00,99.64
2617.00,99.65
2616.00,99.65
2615.00,99.65
2614.00,99.65
2613.00,99.65
2612.00,99.65
2611.00,99.65
2610.00,99.65
2609.00,99.66
2608.00,99.66
2607.00,99.66
2606.00,99.66
2605.00,99.66
2604.00,99.66
2603.00,99.66
2602.00,99.66
2601.00,99.66
2600.00,99.66
2599.00,99.66
2598.00,99.66
2597.00,99.66
2596.00,99.66
2595.00,99.67
2594.00,99.67
2593.00,99.67
2592.00,99.67
2591.00,99.68
2590.00,99.68
2589.00,99.68
2588.00,99.68
2587.00,99.68
2586.00,99.68
2585.00,99.69
2584.00,99.69
2583.00,99.69
2582.00,99.69
2581.00,99.69
2580.00,99.69
2579.00,99.69
2578.00,99.69
2577.00,99.69
2576.00,99.69
2575.00,99.68
2574.00,99.68
2573.00,99.69
2572.00,99.69
2571.00,99.69
2570.00,99.69
2569.00,99.70
2568.00,99.70
2567.00,99.71
2566.00,99.71
2565.00,99.72
2564.00,99.72
2563.00,99.72
2562.00,99.72
2561.00,99.71
2560.00,99.71
2559.00,99.70
2558.00,99.70
2557.00,99.71
2556.00,99.71
2555.00,99.71
2554.00,99.71
2553.00,99.71
2552.00,99.72
2551.00,99.72
2550.00,99.72
2549.00,99.72
2548.00,99.72
2547.00,99.72
2546.00,99.72
2545.00,99.72
2544.00,99.72
2543.00,99.72
2542.00,99.72
2541.00,99.72
2540.00,99.73
2539.00,99.73
2538.00,99.73
2537.00,99.73
2536.00,99.73
2535.00,99.73
2534.00,99.73
2533.00,99.72
2532.00,99.72
2531.00,99.71
2530.00,99.71
2529.00,99.71
2528.00,99.71
2527.00,99.71
2526.00,99.71
2525.00,99.72
2524.00,99.72
2523.00,99.72
2522.00,99.72
2521.00,99.72
2520.00,99.71
2519.00,99.71
2518.00,99.72
2517.00,99.72
2516.00,99.72
2515.00,99.72
2514.00,99.72
2513.00,99.72
2512.00,99.72
2511.00,99.71
2510.00,99.72
2509.00,99.72
2508.00,99.72
2507.00,99.71
2506.00,99.71
2505.00,99.70
2504.00,99.70
2503.00,99.70
2502.00,99.70
2501.00,99.70
2500.00,99.70
2499.00,99.70
2498.00,99.70
2497.00,99.69
2496.00,99.69
2495.00,99.69
2494.00,99.69
2493.00,99.69
2492.00,99.69
2491.00,99.69
2490.00,99.69
2489.00,99.69
2488.00,99.69
2487.00,99.69
2486.00,99.69
2485.00,99.69
2484.00,99.69
2483.00,99.69
2482.00,99.69
2481.00,99.69
2480.00,99.69
2479.00,99.70
2478.00,99.69
2477.00,99.69
2476.00,99.69
2475.00,99.68
2474.00,99.67
2473.00,99.67
2472.00,99.67
2471.00,99.67
2470.00,99.67
2469.00,99.68
2468.00,99.67
2467.00,99.67
2466.00,99.67
2465.00,99.67
2464.00,99.67
2463.00,99.67
2462.00,99.67
2461.00,99.66
2460.00,99.66
2459.00,99.66
2458.00,99.65
2457.00,99.65
2456.00,99.65
2455.00,99.65
2454.00,99.65
2453.00,99.65
2452.00,99.65
2451.00,99.65
2450.00,99.66
2449.00,99.66
2448.00,99.66
2447.00,99.66
2446.00,99.67
2445.00,99.67
2444.00,99.68
2443.00,99.69
2442.00,99.69
2441.00,99.69
2440.00,99.68
2439.00,99.68
2438.00,99.69
2437.00,99.70
2436.00,99.70
2435.00,99.71
2434.00,99.72
2433.00,99.72
2432.00,99.72
2431.00,99.72
2430.00,99.71
2429.00,99.70
2428.00,99.71
2427.00,99.71
2426.00,99.72
2425.00,99.73
2424.00,99.73
2423.00,99.73
2422.00,99.73
2421.00,99.72
2420.00,99.72
2419.00,99.72
2418.00,99.72
2417.00,99.73
2416.00,99.73
2415.00,99.72
2414.00,99.72
2413.00,99.72
2412.00,99.72
2411.00,99.72
2410.00,99.72
2409.00,99.73
2408.00,99.74
2407.00,99.75
2406.00,99.75
2405.00,99.76
2404.00,99.76
2403.00,99.76
2402.00,99.76
2401.00,99.76
2400.00,99.76
2399.00,99.75
2398.00,99.75
2397.00,99.75
2396.00,99.75
2395.00,99.75
2394.00,99.76
2393.00,99.76
2392.00,99.76
2391.00,99.77
2390.00,99.77
2389.00,99.77
2388.00,99.78
2387.00,99.78
2386.00,99.79
2385.00,99.79
2384.00,99.80
2383.00,99.81
2382.00,99.82
2381.00,99.84
2380.00,99.85
2379.00,99.86
2378.00,99.86
2377.00,99.86
2376.00,99.86
2375.00,99.85
2374.00,99.85
2373.00,99.84
2372.00,99.83
2371.00,99.83
2370.00,99.83
2369.00,99.83
2368.00,99.83
2367.00,99.84
2366.00,99.84
2365.00,99.84
2364.00,99.83
2363.00,99.81
2362.00,99.79
2361.00,99.77
2360.00,99.77
2359.00,99.78
2358.00,99.79
2357.00,99.81
2356.00,99.81
2355.00,99.81
2354.00,99.81
2353.00,99.81
2352.00,99.80
2351.00,99.80
2350.00,99.81
2349.00,99.83
2348.00,99.84
2347.00,99.84
2346.00,99.83
2345.00,99.82
2344.00,99.80
2343.00,99.78
2342.00,99.77
2341.00,99.76
2340.00,99.75
2339.00,99.74
2338.00,99.74
2337.00,99.73
2336.00,99.73
2335.00,99.73
2334.00,99.74
2333.00,99.75
2332.00,99.76
2331.00,99.75
2330.00,99.73
2329.00,99.72
2328.00,99.70
2327.00,99.66
2326.00,99.62
2325.00,99.57
2324.00,99.54
2323.00,99.53
2322.00,99.54
2321.00,99.56
2320.00,99.58
2319.00,99.60
2318.00,99.61
2317.00,99.62
2316.00,99.62
2315.00,99.63
2314.00,99.63
2313.00,99.63
2312.00,99.63
2311.00,99.63
2310.00,99.62
2309.00,99.63
2308.00,99.63
2307.00,99.63
2306.00,99.63
2305.00,99.63
2304.00,99.63
2303.00,99.62
2302.00,99.62
2301.00,99.61
2300.00,99.60
2299.00,99.59
2298.00,99.59
2297.00,99.59
2296.00,99.59
2295.00,99.58
2294.00,99.58
2293.00,99.57
2292.00,99.56
2291.00,99.55
2290.00,99.53
2289.00,99.52
2288.00,99.50
2287.00,99.49
2286.00,99.49
2285.00,99.49
2284.00,99.49
2283.00,99.50
2282.00,99.50
2281.00,99.51
2280.00,99.52
2279.00,99.53
2278.00,99.54
2277.00,99.54
2276.00,99.54
2275.00,99.55
2274.00,99.55
2273.00,99.56
2272.00,99.56
2271.00,99.57
2270.00,99.57
2269.00,99.58
2268.00,99.58
2267.00,99.58
2266.00,99.59
2265.00,99.60
2264.00,99.61
2263.00,99.61
2262.00,99.61
2261.00,99.60
2260.00,99.59
2259.00,99.58
2258.00,99.57
2257.00,99.56
2256.00,99.56
2255.00,99.57
2254.00,99.58
2253.00,99.60
2252.00,99.61
2251.00,99.61
2250.00,99.61
2249.00,99.60
2248.00,99.60
2247.00,99.60
2246.00,99.60
2245.00,99.60
2244.00,99.61
2243.00,99.61
2242.00,99.61
2241.00,99.61
2240.00,99.60
2239.00,99.60
2238.00,99.60
2237.00,99.60
2236.00,99.60
2235.00,99.60
2234.00,99.59
2233.00,99.59
2232.00,99.59
2231.00,99.59
2230.00,99.59
2229.00,99.60
2228.00,99.61
2227.00,99.61
2226.00,99.60
2225.00,99.60
2224.00,99.60
2223.00,99.60
2222.00,99.59
2221.00,99.59
2220.00,99.58
2219.00,99.57
2218.00,99.57
2217.00,99.57
2216.00,99.57
2215.00,99.58
2214.00,99.59
2213.00,99.60
2212.00,99.62
2211.00,99.62
2210.00,99.61
2209.00,99.59
2208.00,99.58
2207.00,99.56
2206.00,99.55
2205.00,99.55
2204.00,99.55
2203.00,99.56
2202.00,99.58
2201.00,99.59
2200.00,99.58
2199.00,99.57
2198.00,99.56
2197.00,99.54
2196.00,99.53
2195.00,99.52
2194.00,99.51
2193.00,99.50
2192.00,99.49
2191.00,99.47
2190.00,99.46
2189.00,99.46
2188.00,99.45
2187.00,99.44
2186.00,99.43
2185.00,99.43
2184.00,99.43
2183.00,99.46
2182.00,99.49
2181.00,99.53
2180.00,99.56
2179.00,99.56
2178.00,99.55
2177.00,99.54
2176.00,99.54
2175.00,99.54
2174.00,99.53
2173.00,99.52
2172.00,99.49
2171.00,99.45
2170.00,99.41
2169.00,99.38
2168.00,99.36
2167.00,99.33
2166.00,99.30
2165.00,99.27
2164.00,99.24
2163.00,99.21
2162.00,99.19
2161.00,99.23
2160.00,99.36
2159.00,99.57
2158.00,99.78
2157.00,99.92
2156.00,99.98
2155.00,99.96
2154.00,99.92
2153.00,99.87
2152.00,99.83
2151.00,99.78
2150.00,99.75
2149.00,99.73
2148.00,99.72
2147.00,99.73
2146.00,99.76
2145.00,99.79
2144.00,99.80
2143.00,99.79
2142.00,99.78
2141.00,99.77
2140.00,99.76
2139.00,99.75
2138.00,99.75
2137.00,99.77
2136.00,99.79
2135.00,99.83
2134.00,99.87
2133.00,99.89
2132.00,99.89
2131.00,99.87
2130.00,99.85
2129.00,99.82
2128.00,99.80
2127.00,99.78
2126.00,99.76
2125.00,99.75
2124.00,99.73
2123.00,99.72
2122.00,99.72
2121.00,99.72
2120.00,99.71
2119.00,99.69
2118.00,99.67
2117.00,99.65
2116.00,99.63
2115.00,99.62
2114.00,99.61
2113.00,99.61
2112.00,99.61
2111.00,99.62
2110.00,99.62
2109.00,99.63
2108.00,99.63
2107.00,99.63
2106.00,99.63
2105.00,99.63
2104.00,99.62
2103.00,99.62
2102.00,99.61
2101.00,99.61
2100.00,99.62
2099.00,99.62
2098.00,99.63
2097.00,99.65
2096.00,99.68
2095.00,99.70
2094.00,99.71
2093.00,99.71
2092.00,99.69
2091.00,99.67
2090.00,99.65
2089.00,99.64
2088.00,99.63
2087.00,99.62
2086.00,99.62
2085.00,99.61
2084.00,99.61
2083.00,99.60
2082.00,99.59
2081.00,99.59
2080.00,99.59
2079.00,99.59
2078.00,99.59
2077.00,99.58
2076.00,99.57
2075.00,99.57
2074.00,99.56
2073.00,99.57
2072.00,99.57
2071.00,99.57
2070.00,99.57
2069.00,99.56
2068.00,99.56
2067.00,99.55
2066.00,99.55
2065.00,99.55
2064.00,99.56
2063.00,99.56
2062.00,99.56
2061.00,99.56
2060.00,99.56
2059.00,99.55
2058.00,99.53
2057.00,99.52
2056.00,99.51
2055.00,99.51
2054.00,99.51
2053.00,99.48
2052.00,99.43
2051.00,99.38
2050.00,99.36
2049.00,99.37
2048.00,99.40
2047.00,99.43
2046.00,99.44
2045.00,99.45
2044.00,99.45
2043.00,99.45
2042.00,99.44
2041.00,99.44
2040.00,99.43
2039.00,99.42
2038.00,99.40
2037.00,99.40
2036.00,99.41
2035.00,99.42
2034.00,99.45
2033.00,99.48
2032.00,99.51
2031.00,99.52
2030.00,99.53
2029.00,99.54
2028.00,99.55
2027.00,99.54
2026.00,99.53
2025.00,99.53
2024.00,99.55
2023.00,99.56
2022.00,99.56
2021.00,99.55
2020.00,99.54
2019.00,99.54
2018.00,99.54
2017.00,99.54
2016.00,99.54
2015.00,99.54
2014.00,99.54
2013.00,99.55
2012.00,99.55
2011.00,99.54
2010.00,99.52
2009.00,99.53
2008.00,99.55
2007.00,99.59
2006.00,99.63
2005.00,99.67
2004.00,99.68
2003.00,99.67
2002.00,99.65
2001.00,99.64
2000.00,99.63
1999.00,99.62
1998.00,99.61
1997.00,99.60
1996.00,99.59
1995.00,99.58
1994.00,99.56
1993.00,99.56
1992.00,99.55
1991.00,99.55
1990.00,99.54
1989.00,99.53
1988.00,99.51
1987.00,99.50
1986.00,99.49
1985.00,99.48
1984.00,99.47
1983.00,99.44
1982.00,99.41
1981.00,99.38
1980.00,99.36
1979.00,99.37
1978.00,99.42
1977.00,99.49
1976.00,99.55
1975.00,99.58
1974.00,99.59
1973.00,99.60
1972.00,99.61
1971.00,99.63
1970.00,99.65
1969.00,99.67
1968.00,99.67
1967.00,99.66
1966.00,99.65
1965.00,99.65
1964.00,99.66
1963.00,99.66
1962.00,99.67
1961.00,99.68
1960.00,99.70
1959.00,99.71
1958.00,99.72
1957.00,99.72
1956.00,99.71
1955.00,99.70
1954.00,99.69
1953.00,99.68
1952.00,99.67
1951.00,99.66
1950.00,99.66
1949.00,99.67
1948.00,99.67
1947.00,99.68
1946.00,99.67
1945.00,99.67
1944.00,99.67
1943.00,99.67
1942.00,99.67
1941.00,99.68
1940.00,99.68
1939.00,99.67
1938.00,99.67
1937.00,99.68
1936.00,99.68
1935.00,99.68
1934.00,99.67
1933.00,99.68
1932.00,99.68
1931.00,99.68
1930.00,99.68
1929.00,99.68
1928.00,99.69
1927.00,99.69
1926.00,99.69
1925.00,99.70
1924.00,99.71
1923.00,99.69
1922.00,99.68
1921.00,99.67
1920.00,99.66
1919.00,99.66
1918.00,99.65
1917.00,99.66
1916.00,99.65
1915.00,99.65
1914.00,99.65
1913.00,99.66
1912.00,99.66
1911.00,99.66
1910.00,99.66
1909.00,99.66
1908.00,99.65
1907.00,99.64
1906.00,99.63
1905.00,99.63
1904.00,99.62
1903.00,99.61
1902.00,99.61
1901.00,99.63
1900.00,99.64
1899.00,99.64
1898.00,99.63
1897.00,99.62
1896.00,99.62
1895.00,99.61
1894.00,99.61
1893.00,99.61
1892.00,99.60
1891.00,99.60
1890.00,99.59
1889.00,99.60
1888.00,99.60
1887.00,99.59
1886.00,99.59
1885.00,99.59
1884.00,99.58
1883.00,99.58
1882.00,99.58
1881.00,99.58
1880.00,99.57
1879.00,99.56
1878.00,99.56
1877.00,99.56
1876.00,99.55
1875.00,99.54
1874.00,99.54
1873.00,99.53
1872.00,99.53
1871.00,99.52
1870.00,99.52
1869.00,99.52
1868.00,99.53
1867.00,99.52
1866.00,99.52
1865.00,99.51
1864.00,99.50
1863.00,99.50
1862.00,99.50
1861.00,99.50
1860.00,99.51
1859.00,99.51
1858.00,99.51
1857.00,99.51
1856.00,99.50
1855.00,99.50
1854.00,99.49
1853.00,99.49
1852.00,99.49
1851.00,99.48
1850.00,99.48
1849.00,99.48
1848.00,99.48
1847.00,99.47
1846.00,99.46
1845.00,99.46
1844.00,99.45
1843.00,99.45
1842.00,99.44
1841.00,99.44
1840.00,99.44
1839.00,99.42
1838.00,99.41
1837.00,99.40
1836.00,99.39
1835.00,99.39
1834.00,99.39
1833.00,99.39
1832.00,99.39
1831.00,99.38
1830.00,99.37
1829.00,99.37
1828.00,99.37
1827.00,99.35
1826.00,99.35
1825.00,99.34
1824.00,99.35
1823.00,99.35
1822.00,99.34
1821.00,99.35
1820.00,99.36
1819.00,99.36
1818.00,99.38
1817.00,99.39
1816.00,99.39
1815.00,99.38
1814.00,99.37
1813.00,99.37
1812.00,99.36
1811.00,99.35
1810.00,99.35
1809.00,99.35
1808.00,99.35
1807.00,99.35
1806.00,99.34
1805.00,99.34
1804.00,99.34
1803.00,99.33
1802.00,99.32
1801.00,99.32
1800.00,99.32
1799.00,99.32
1798.00,99.31
1797.00,99.31
1796.00,99.31
1795.00,99.30
1794.00,99.29
1793.00,99.29
1792.00,99.28
1791.00,99.27
1790.00,99.26
1789.00,99.25
1788.00,99.24
1787.00,99.23
1786.00,99.21
1785.00,99.21
1784.00,99.20
1783.00,99.18
1782.00,99.16
1781.00,99.15
1780.00,99.13
1779.00,99.11
1778.00,99.09
1777.00,99.08
1776.00,99.06
1775.00,99.03
1774.00,98.99
1773.00,98.96
1772.00,98.91
1771.00,98.86
1770.00,98.81
1769.00,98.76
1768.00,98.69
1767.00,98.61
1766.00,98.52
1765.00,98.43
1764.00,98.31
1763.00,98.13
1762.00,97.91
1761.00,97.67
1760.00,97.41
1759.00,97.10
1758.00,96.69
1757.00,96.19
1756.00,95.64
1755.00,95.10
1754.00,94.56
1753.00,93.95
1752.00,93.21
1751.00,92.36
1750.00,91.48
1749.00,90.64
1748.00,89.85
1747.00,89.09
1746.00,88.37
1745.00,87.66
1744.00,86.93
1743.00,86.21
1742.00,85.52
1741.00,84.80
1740.00,84.04
1739.00,83.32
1738.00,82.76
1737.00,82.36
1736.00,81.96
1735.00,81.36
1734.00,80.61
1733.00,80.01
1732.00,79.69
1731.00,79.48
1730.00,79.31
1729.00,79.18
1728.00,79.15
1727.00,79.22
1726.00,79.40
1725.00,79.68
1724.00,80.10
1723.00,80.62
1722.00,81.20
1721.00,81.84
1720.00,82.59
1719.00,83.50
1718.00,84.54
1717.00,85.56
1716.00,86.47
1715.00,87.31
1714.00,88.09
1713.00,88.81
1712.00,89.49
1711.00,90.14
1710.00,90.75
1709.00,91.31
1708.00,91.81
1707.00,92.31
1706.00,92.78
1705.00,93.18
1704.00,93.49
1703.00,93.75
1702.00,94.01
1701.00,94.26
1700.00,94.50
1699.00,94.70
1698.00,94.87
1697.00,95.04
1696.00,95.22
1695.00,95.41
1694.00,95.57
1693.00,95.72
1692.00,95.87
1691.00,96.05
1690.00,96.24
1689.00,96.40
1688.00,96.55
1687.00,96.69
1686.00,96.84
1685.00,97.01
1684.00,97.16
1683.00,97.28
1682.00,97.37
1681.00,97.45
1680.00,97.52
1679.00,97.59
1678.00,97.66
1677.00,97.71
1676.00,97.76
1675.00,97.81
1674.00,97.86
1673.00,97.89
1672.00,97.93
1671.00,97.96
1670.00,97.98
1669.00,98.00
1668.00,98.01
1667.00,98.03
1666.00,98.05
1665.00,98.06
1664.00,98.06
1663.00,98.07
1662.00,98.08
1661.00,98.08
1660.00,98.09
1659.00,98.10
1658.00,98.12
1657.00,98.13
1656.00,98.13
1655.00,98.14
1654.00,98.16
1653.00,98.15
1652.00,98.16
1651.00,98.18
1650.00,98.19
1649.00,98.21
1648.00,98.22
1647.00,98.24
1646.00,98.26
1645.00,98.28
1644.00,98.30
1643.00,98.33
1642.00,98.35
1641.00,98.37
1640.00,98.40
1639.00,98.42
1638.00,98.44
1637.00,98.46
1636.00,98.48
1635.00,98.50
1634.00,98.53
1633.00,98.56
1632.00,98.57
1631.00,98.59
1630.00,98.61
1629.00,98.63
1628.00,98.65
1627.00,98.67
1626.00,98.69
1625.00,98.71
1624.00,98.74
1623.00,98.76
1622.00,98.79
1621.00,98.80
1620.00,98.82
1619.00,98.84
1618.00,98.86
1617.00,98.88
1616.00,98.89
1615.00,98.90
1614.00,98.91
1613.00,98.93
1612.00,98.94
1611.00,98.96
1610.00,98.97
1609.00,98.98
1608.00,98.99
1607.00,99.00
1606.00,99.02
1605.00,99.03
1604.00,99.03
1603.00,99.04
1602.00,99.05
1601.00,99.06
1600.00,99.06
1599.00,99.07
1598.00,99.08
1597.00,99.08
1596.00,99.09
1595.00,99.09
1594.00,99.10
1593.00,99.10
1592.00,99.10
1591.00,99.10
1590.00,99.10
1589.00,99.10
1588.00,99.10
1587.00,99.11
1586.00,99.11
1585.00,99.11
1584.00,99.10
1583.00,99.10
1582.00,99.10
1581.00,99.10
1580.00,99.10
1579.00,99.10
1578.00,99.10
1577.00,99.10
1576.00,99.10
1575.00,99.11
1574.00,99.11
1573.00,99.11
1572.00,99.11
1571.00,99.11
1570.00,99.11
1569.00,99.11
1568.00,99.10
1567.00,99.10
1566.00,99.11
1565.00,99.11
1564.00,99.11
1563.00,99.11
1562.00,99.11
1561.00,99.11
1560.00,99.12
1559.00,99.13
1558.00,99.13
1557.00,99.12
1556.00,99.12
1555.00,99.12
1554.00,99.12
1553.00,99.12
1552.00,99.13
1551.00,99.13
1550.00,99.14
1549.00,99.14
1548.00,99.14
1547.00,99.14
1546.00,99.14
1545.00,99.13
1544.00,99.13
1543.00,99.13
1542.00,99.13
1541.00,99.13
1540.00,99.13
1539.00,99.14
1538.00,99.15
1537.00,99.15
1536.00,99.14
1535.00,99.14
1534.00,99.13
1533.00,99.13
1532.00,99.13
1531.00,99.13
1530.00,99.13
1529.00,99.13
1528.00,99.13
1527.00,99.12
1526.00,99.12
1525.00,99.12
1524.00,99.12
1523.00,99.12
1522.00,99.13
1521.00,99.13
1520.00,99.13
1519.00,99.13
1518.00,99.13
1517.00,99.12
1516.00,99.12
1515.00,99.12
1514.00,99.12
1513.00,99.13
1512.00,99.12
1511.00,99.12
1510.00,99.13
1509.00,99.12
1508.00,99.12
1507.00,99.12
1506.00,99.12
1505.00,99.12
1504.00,99.11
1503.00,99.11
1502.00,99.11
1501.00,99.11
1500.00,99.11
1499.00,99.10
1498.00,99.10
1497.00,99.10
1496.00,99.10
1495.00,99.11
1494.00,99.10
1493.00,99.10
1492.00,99.08
1491.00,99.08
1490.00,99.07
1489.00,99.07
1488.00,99.06
1487.00,99.05
1486.00,99.05
1485.00,99.04
1484.00,99.03
1483.00,99.03
1482.00,99.02
1481.00,99.01
1480.00,99.00
1479.00,98.99
1478.00,98.98
1477.00,98.97
1476.00,98.94
1475.00,98.92
1474.00,98.91
1473.00,98.88
1472.00,98.85
1471.00,98.83
1470.00,98.82
1469.00,98.79
1468.00,98.76
1467.00,98.73
1466.00,98.69
1465.00,98.65
1464.00,98.60
1463.00,98.55
1462.00,98.52
1461.00,98.47
1460.00,98.42
1459.00,98.36
1458.00,98.27
1457.00,98.14
1456.00,98.02
1455.00,97.92
1454.00,97.84
1453.00,97.73
1452.00,97.61
1451.00,97.49
1450.00,97.36
1449.00,97.21
1448.00,97.04
1447.00,96.87
1446.00,96.72
1445.00,96.57
1444.00,96.42
1443.00,96.27
1442.00,96.13
1441.00,96.00
1440.00,95.89
1439.00,95.79
1438.00,95.68
1437.00,95.56
1436.00,95.45
1435.00,95.39
1434.00,95.38
1433.00,95.37
1432.00,95.38
1431.00,95.41
1430.00,95.46
1429.00,95.54
1428.00,95.63
1427.00,95.74
1426.00,95.86
1425.00,96.00
1424.00,96.15
1423.00,96.30
1422.00,96.45
1421.00,96.59
1420.00,96.76
1419.00,96.93
1418.00,97.09
1417.00,97.21
1416.00,97.32
1415.00,97.42
1414.00,97.50
1413.00,97.57
1412.00,97.63
1411.00,97.67
1410.00,97.70
1409.00,97.72
1408.00,97.72
1407.00,97.71
1406.00,97.69
1405.00,97.65
1404.00,97.61
1403.00,97.57
1402.00,97.52
1401.00,97.47
1400.00,97.41
1399.00,97.33
1398.00,97.26
1397.00,97.18
1396.00,97.09
1395.00,96.97
1394.00,96.84
1393.00,96.71
1392.00,96.57
1391.00,96.42
1390.00,96.24
1389.00,96.01
1388.00,95.71
1387.00,95.35
1386.00,94.96
1385.00,94.55
1384.00,94.11
1383.00,93.61
1382.00,93.05
1381.00,92.46
1380.00,91.83
1379.00,91.18
1378.00,90.55
1377.00,89.96
1376.00,89.39
1375.00,88.84
1374.00,88.36
1373.00,88.00
1372.00,87.77
1371.00,87.67
1370.00,87.67
1369.00,87.75
1368.00,87.90
1367.00,88.12
1366.00,88.38
1365.00,88.69
1364.00,89.03
1363.00,89.41
1362.00,89.83
1361.00,90.26
1360.00,90.72
1359.00,91.22
1358.00,91.75
1357.00,92.32
1356.00,92.90
1355.00,93.48
1354.00,94.05
1353.00,94.57
1352.00,95.05
1351.00,95.49
1350.00,95.89
1349.00,96.25
1348.00,96.56
1347.00,96.83
1346.00,97.07
1345.00,97.28
1344.00,97.45
1343.00,97.61
1342.00,97.74
1341.00,97.85
1340.00,97.95
1339.00,98.04
1338.00,98.11
1337.00,98.17
1336.00,98.21
1335.00,98.25
1334.00,98.29
1333.00,98.31
1332.00,98.33
1331.00,98.34
1330.00,98.34
1329.00,98.34
1328.00,98.33
1327.00,98.33
1326.00,98.31
1325.00,98.30
1324.00,98.29
1323.00,98.28
1322.00,98.27
1321.00,98.26
1320.00,98.25
1319.00,98.23
1318.00,98.21
1317.00,98.19
1316.00,98.18
1315.00,98.16
1314.00,98.14
1313.00,98.12
1312.00,98.10
1311.00,98.08
1310.00,98.05
1309.00,98.02
1308.00,97.99
1307.00,97.97
1306.00,97.94
1305.00,97.90
1304.00,97.87
1303.00,97.84
1302.00,97.81
1301.00,97.77
1300.00,97.73
1299.00,97.68
1298.00,97.64
1297.00,97.59
1296.00,97.53
1295.00,97.48
1294.00,97.42
1293.00,97.35
1292.00,97.27
1291.00,97.19
1290.00,97.10
1289.00,96.99
1288.00,96.87
1287.00,96.75
1286.00,96.61
1285.00,96.46
1284.00,96.29
1283.00,96.11
1282.00,95.91
1281.00,95.69
1280.00,95.45
1279.00,95.20
1278.00,94.92
1277.00,94.62
1276.00,94.29
1275.00,93.96
1274.00,93.62
1273.00,93.25
1272.00,92.87
1271.00,92.48
1270.00,92.08
1269.00,91.68
1268.00,91.28
1267.00,90.89
1266.00,90.51
1265.00,90.12
1264.00,89.74
1263.00,89.37
1262.00,89.01
1261.00,88.66
1260.00,88.30
1259.00,87.97
1258.00,87.65
1257.00,87.33
1256.00,87.02
1255.00,86.70
1254.00,86.40
1253.00,86.09
1252.00,85.77
1251.00,85.44
1250.00,85.12
1249.00,84.79
1248.00,84.45
1247.00,84.11
1246.00,83.78
1245.00,83.42
1244.00,83.06
1243.00,82.70
1242.00,82.35
1241.00,82.00
1240.00,81.64
1239.00,81.29
1238.00,80.96
1237.00,80.64
1236.00,80.32
1235.00,80.02
1234.00,79.74
1233.00,79.47
1232.00,79.21
1231.00,78.98
1230.00,78.78
1229.00,78.59
1228.00,78.42
1227.00,78.29
1226.00,78.21
1225.00,78.15
1224.00,78.11
1223.00,78.13
1222.00,78.21
1221.00,78.33
1220.00,78.48
1219.00,78.70
1218.00,78.98
1217.00,79.31
1216.00,79.69
1215.00,80.12
1214.00,80.60
1213.00,81.11
1212.00,81.64
1211.00,82.21
1210.00,82.79
1209.00,83.36
1208.00,83.92
1207.00,84.48
1206.00,85.03
1205.00,85.56
1204.00,86.07
1203.00,86.57
1202.00,87.06
1201.00,87.53
1200.00,87.97
1199.00,88.41
1198.00,88.82
1197.00,89.22
1196.00,89.60
1195.00,89.96
1194.00,90.31
1193.00,90.65
1192.00,90.96
1191.00,91.26
1190.00,91.56
1189.00,91.84
1188.00,92.11
1187.00,92.38
1186.00,92.65
1185.00,92.90
1184.00,93.15
1183.00,93.39
1182.00,93.62
1181.00,93.85
1180.00,94.08
1179.00,94.31
1178.00,94.53
1177.00,94.74
1176.00,94.95
1175.00,95.14
1174.00,95.33
1173.00,95.50
1172.00,95.66
1171.00,95.81
1170.00,95.95
1169.00,96.07
1168.00,96.18
1167.00,96.28
1166.00,96.38
1165.00,96.46
1164.00,96.53
1163.00,96.60
1162.00,96.65
1161.00,96.68
1160.00,96.70
1159.00,96.71
1158.00,96.70
1157.00,96.67
1156.00,96.62
1155.00,96.55
1154.00,96.46
1153.00,96.34
1152.00,96.20
1151.00,96.05
1150.00,95.89
1149.00,95.71
1148.00,95.52
1147.00,95.34
1146.00,95.15
1145.00,94.95
1144.00,94.74
1143.00,94.53
1142.00,94.32
1141.00,94.11
1140.00,93.89
1139.00,93.67
1138.00,93.45
1137.00,93.24
1136.00,93.02
1135.00,92.80
1134.00,92.60
1133.00,92.39
1132.00,92.20
1131.00,92.03
1130.00,91.88
1129.00,91.74
1128.00,91.60
1127.00,91.48
1126.00,91.39
1125.00,91.31
1124.00,91.25
1123.00,91.19
1122.00,91.15
1121.00,91.12
1120.00,91.10
1119.00,91.09
1118.00,91.08
1117.00,91.08
1116.00,91.08
1115.00,91.08
1114.00,91.08
1113.00,91.08
1112.00,91.07
1111.00,91.07
1110.00,91.07
1109.00,91.06
1108.00,91.05
1107.00,91.03
1106.00,91.02
1105.00,91.01
1104.00,90.99
1103.00,90.99
1102.00,90.99
1101.00,90.98
1100.00,90.97
1099.00,90.96
1098.00,90.97
1097.00,90.98
1096.00,90.98
1095.00,90.98
1094.00,90.98
1093.00,90.98
1092.00,90.98
1091.00,90.98
1090.00,90.98
1089.00,90.99
1088.00,91.00
1087.00,91.01
1086.00,91.02
1085.00,91.04
1084.00,91.05
1083.00,91.06
1082.00,91.08
1081.00,91.10
1080.00,91.12
1079.00,91.15
1078.00,91.18
1077.00,91.22
1076.00,91.24
1075.00,91.27
1074.00,91.30
1073.00,91.33
1072.00,91.36
1071.00,91.40
1070.00,91.44
1069.00,91.47
1068.00,91.48
1067.00,91.50
1066.00,91.51
1065.00,91.51
1064.00,91.50
1063.00,91.48
1062.00,91.45
1061.00,91.40
1060.00,91.34
1059.00,91.26
1058.00,91.16
1057.00,91.04
1056.00,90.89
1055.00,90.72
1054.00,90.54
1053.00,90.33
1052.00,90.10
1051.00,89.87
1050.00,89.65
1049.00,89.43
1048.00,89.22
1047.00,89.03
1046.00,88.87
1045.00,88.73
1044.00,88.60
1043.00,88.50
1042.00,88.41
1041.00,88.32
1040.00,88.24
1039.00,88.14
1038.00,88.04
1037.00,87.91
1036.00,87.75
1035.00,87.57
1034.00,87.36
1033.00,87.12
1032.00,86.83
1031.00,86.51
1030.00,86.16
1029.00,85.78
1028.00,85.37
1027.00,84.94
1026.00,84.52
1025.00,84.09
1024.00,83.68
1023.00,83.30
1022.00,82.97
1021.00,82.70
1020.00,82.50
1019.00,82.41
1018.00,82.41
1017.00,82.52
1016.00,82.72
1015.00,83.02
1014.00,83.41
1013.00,83.88
1012.00,84.39
1011.00,84.95
1010.00,85.52
1009.00,86.09
1008.00,86.65
1007.00,87.20
1006.00,87.73
1005.00,88.23
1004.00,88.70
1003.00,89.14
1002.00,89.55
1001.00,89.92
1000.00,90.26
999.00,90.57
998.00,90.86
997.00,91.12
996.00,91.36
995.00,91.59
994.00,91.81
993.00,92.00
992.00,92.18
991.00,92.35
990.00,92.51
989.00,92.67
988.00,92.82
987.00,92.96
986.00,93.09
985.00,93.22
984.00,93.34
983.00,93.45
982.00,93.55
981.00,93.64
980.00,93.72
979.00,93.79
978.00,93.86
977.00,93.91
976.00,93.94
975.00,93.97
974.00,93.99
973.00,93.99
972.00,93.97
971.00,93.95
970.00,93.92
969.00,93.89
968.00,93.85
967.00,93.80
966.00,93.74
965.00,93.66
964.00,93.57
963.00,93.46
962.00,93.35
961.00,93.23
960.00,93.09
959.00,92.92
958.00,92.72
957.00,92.47
956.00,92.17
955.00,91.82
954.00,91.44
953.00,91.02
952.00,90.60
951.00,90.19
950.00,89.81
949.00,89.49
948.00,89.23
947.00,89.07
946.00,88.99
945.00,88.99
944.00,89.05
943.00,89.17
942.00,89.33
941.00,89.52
940.00,89.71
939.00,89.92
938.00,90.15
937.00,90.38
936.00,90.62
935.00,90.86
934.00,91.11
933.00,91.37
932.00,91.62
931.00,91.87
930.00,92.12
929.00,92.37
928.00,92.61
927.00,92.83
926.00,93.05
925.00,93.25
924.00,93.44
923.00,93.62
922.00,93.79
921.00,93.96
920.00,94.10
919.00,94.23
918.00,94.36
917.00,94.49
916.00,94.60
915.00,94.72
914.00,94.83
913.00,94.94
912.00,95.05
911.00,95.16
910.00,95.27
909.00,95.36
908.00,95.45
907.00,95.52
906.00,95.60
905.00,95.67
904.00,95.75
903.00,95.82
902.00,95.89
901.00,95.96
900.00,96.01
899.00,96.07
898.00,96.12
897.00,96.18
896.00,96.23
895.00,96.28
894.00,96.32
893.00,96.35
892.00,96.38
891.00,96.41
890.00,96.45
889.00,96.49
888.00,96.52
887.00,96.54
886.00,96.57
885.00,96.60
884.00,96.64
883.00,96.69
882.00,96.74
881.00,96.79
880.00,96.82
879.00,96.86
878.00,96.90
877.00,96.96
876.00,97.01
875.00,97.05
874.00,97.09
873.00,97.12
872.00,97.17
871.00,97.22
870.00,97.27
869.00,97.31
868.00,97.34
867.00,97.38
866.00,97.42
865.00,97.44
864.00,97.46
863.00,97.48
862.00,97.49
861.00,97.51
860.00,97.53
859.00,97.55
858.00,97.57
857.00,97.58
856.00,97.59
855.00,97.60
854.00,97.61
853.00,97.61
852.00,97.62
851.00,97.62
850.00,97.63
849.00,97.63
848.00,97.63
847.00,97.63
846.00,97.63
845.00,97.63
844.00,97.64
843.00,97.64
842.00,97.64
841.00,97.64
840.00,97.63
839.00,97.64
838.00,97.66
837.00,97.67
836.00,97.67
835.00,97.67
834.00,97.66
833.00,97.65
832.00,97.64
831.00,97.62
830.00,97.61
829.00,97.59
828.00,97.58
827.00,97.57
826.00,97.56
825.00,97.54
824.00,97.52
823.00,97.49
822.00,97.46
821.00,97.43
820.00,97.40
819.00,97.37
818.00,97.34
817.00,97.29
816.00,97.24
815.00,97.20
814.00,97.15
813.00,97.11
812.00,97.05
811.00,96.99
810.00,96.92
809.00,96.85
808.00,96.77
807.00,96.68
806.00,96.59
805.00,96.47
804.00,96.35
803.00,96.22
802.00,96.10
801.00,95.97
800.00,95.84
799.00,95.72
798.00,95.62
797.00,95.54
796.00,95.48
795.00,95.46
794.00,95.48
793.00,95.55
792.00,95.67
791.00,95.84
790.00,96.05
789.00,96.28
788.00,96.52
787.00,96.75
786.00,96.96
785.00,97.15
784.00,97.30
783.00,97.44
782.00,97.56
781.00,97.66
780.00,97.75
779.00,97.83
778.00,97.90
777.00,97.95
776.00,97.97
775.00,97.99
774.00,98.01
773.00,98.04
772.00,98.07
771.00,98.09
770.00,98.11
769.00,98.12
768.00,98.13
767.00,98.13
766.00,98.14
765.00,98.15
764.00,98.16
763.00,98.16
762.00,98.18
761.00,98.19
760.00,98.21
759.00,98.23
758.00,98.26
757.00,98.27
756.00,98.27
755.00,98.27
754.00,98.27
753.00,98.28
752.00,98.30
751.00,98.31
750.00,98.32
749.00,98.32
748.00,98.32
747.00,98.32
746.00,98.33
745.00,98.34
744.00,98.34
743.00,98.34
742.00,98.36
741.00,98.38
740.00,98.39
739.00,98.39
738.00,98.38
737.00,98.36
736.00,98.35
735.00,98.34
734.00,98.34
733.00,98.34
732.00,98.34
731.00,98.33
730.00,98.32
729.00,98.30
728.00,98.30
727.00,98.30
726.00,98.31
725.00,98.32
724.00,98.32
723.00,98.32
722.00,98.33
721.00,98.32
720.00,98.31
719.00,98.29
718.00,98.28
717.00,98.27
716.00,98.27
715.00,98.27
714.00,98.27
713.00,98.27
712.00,98.26
711.00,98.25
710.00,98.24
709.00,98.22
708.00,98.21
707.00,98.20
706.00,98.21
705.00,98.21
704.00,98.20
703.00,98.19
702.00,98.18
701.00,98.17
700.00,98.15
699.00,98.13
698.00,98.12
697.00,98.10
696.00,98.07
695.00,98.06
694.00,98.06
693.00,98.07
692.00,98.07
691.00,98.06
690.00,98.03
689.00,98.00
688.00,97.98
687.00,97.96
686.00,97.93
685.00,97.91
684.00,97.89
683.00,97.88
682.00,97.87
681.00,97.86
680.00,97.83
679.00,97.80
678.00,97.76
677.00,97.71
676.00,97.66
675.00,97.59
674.00,97.54
673.00,97.48
672.00,97.43
671.00,97.38
670.00,97.31
669.00,97.17
668.00,96.97
667.00,96.84
666.00,96.79
665.00,96.74
664.00,96.65
663.00,96.54
662.00,96.44
661.00,96.36
660.00,96.28
659.00,96.21
658.00,96.17
657.00,96.14
656.00,96.09
655.00,96.03
654.00,95.96
653.00,95.90
652.00,95.84
651.00,95.80
650.00,95.77
