Created as New Dataset,PVC powder GF
cm-1,%T
4000.00,97.28
3999.00,97.28
3998.00,97.28
3997.00,97.29
3996.00,97.29
3995.00,97.29
3994.00,97.29
3993.00,97.29
3992.00,97.29
3991.00,97.29
3990.00,97.29
3989.00,97.29
3988.00,97.29
3987.00,97.29
3986.00,97.28
3985.00,97.28
3984.00,97.28
3983.00,97.28
3982.00,97.29
3981.00,97.29
3980.00,97.29
3979.00,97.29
3978.00,97.29
3977.00,97.29
3976.00,97.29
3975.00,97.29
3974.00,97.29
3973.00,97.29
3972.00,97.29
3971.00,97.29
3970.00,97.28
3969.00,97.28
3968.00,97.28
3967.00,97.28
3966.00,97.28
3965.00,97.28
3964.00,97.29
3963.00,97.29
3962.00,97.28
3961.00,97.28
3960.00,97.28
3959.00,97.28
3958.00,97.28
3957.00,97.29
3956.00,97.29
3955.00,97.29
3954.00,97.29
3953.00,97.28
3952.00,97.28
3951.00,97.28
3950.00,97.28
3949.00,97.28
3948.00,97.28
3947.00,97.28
3946.00,97.28
3945.00,97.29
3944.00,97.29
3943.00,97.28
3942.00,97.28
3941.00,97.28
3940.00,97.28
3939.00,97.28
3938.00,97.28
3937.00,97.29
3936.00,97.29
3935.00,97.29
3934.00,97.28
3933.00,97.28
3932.00,97.27
3931.00,97.27
3930.00,97.27
3929.00,97.27
3928.00,97.27
3927.00,97.28
3926.00,97.28
3925.00,97.28
3924.00,97.28
3923.00,97.28
3922.00,97.27
3921.00,97.28
3920.00,97.28
3919.00,97.28
3918.00,97.27
3917.00,97.27
3916.00,97.27
3915.00,97.27
3914.00,97.27
3913.00,97.27
3912.00,97.27
3911.00,97.27
3910.00,97.27
3909.00,97.27
3908.00,97.27
3907.00,97.27
3906.00,97.27
3905.00,97.27
3904.00,97.27
3903.00,97.26
3902.00,97.26
3901.00,97.25
3900.00,97.25
3899.00,97.25
3898.00,97.26
3897.00,97.26
3896.00,97.26
3895.00,97.27
3894.00,97.27
3893.00,97.27
3892.00,97.27
3891.00,97.26
3890.00,97.26
3889.00,97.26
3888.00,97.26
3887.00,97.26
3886.00,97.26
3885.00,97.26
3884.00,97.26
3883.00,97.25
3882.00,97.25
3881.00,97.25
3880.00,97.25
3879.00,97.25
3878.00,97.25
3877.00,97.25
3876.00,97.24
3875.00,97.24
3874.00,97.24
3873.00,97.24
3872.00,97.24
3871.00,97.25
3870.00,97.25
3869.00,97.25
3868.00,97.25
3867.00,97.25
3866.00,97.25
3865.00,97.25
3864.00,97.25
3863.00,97.25
3862.00,97.25
3861.00,97.24
3860.00,97.24
3859.00,97.24
3858.00,97.24
3857.00,97.25
3856.00,97.25
3855.00,97.26
3854.00,97.26
3853.00,97.26
3852.00,97.25
3851.00,97.25
3850.00,97.25
3849.00,97.24
3848.00,97.24
3847.00,97.23
3846.00,97.23
3845.00,97.22
3844.00,97.22
3843.00,97.22
3842.00,97.22
3841.00,97.22
3840.00,97.22
3839.00,97.23
3838.00,97.23
3837.00,97.24
3836.00,97.24
3835.00,97.24
3834.00,97.23
3833.00,97.23
3832.00,97.23
3831.00,97.23
3830.00,97.23
3829.00,97.23
3828.00,97.23
3827.00,97.23
3826.00,97.22
3825.00,97.22
3824.00,97.22
3823.00,97.22
3822.00,97.22
3821.00,97.22
3820.00,97.22
3819.00,97.22
3818.00,97.22
3817.00,97.22
3816.00,97.22
3815.00,97.22
3814.00,97.22
3813.00,97.22
3812.00,97.22
3811.00,97.22
3810.00,97.22
3809.00,97.21
3808.00,97.21
3807.00,97.22
3806.00,97.22
3805.00,97.23
3804.00,97.23
3803.00,97.23
3802.00,97.23
3801.00,97.23
3800.00,97.23
3799.00,97.23
3798.00,97.22
3797.00,97.22
3796.00,97.21
3795.00,97.21
3794.00,97.21
3793.00,97.21
3792.00,97.20
3791.00,97.20
3790.00,97.20
3789.00,97.20
3788.00,97.20
3787.00,97.20
3786.00,97.20
3785.00,97.20
3784.00,97.20
3783.00,97.20
3782.00,97.19
3781.00,97.19
3780.00,97.18
3779.00,97.18
3778.00,97.19
3777.00,97.19
3776.00,97.19
3775.00,97.19
3774.00,97.19
3773.00,97.19
3772.00,97.19
3771.00,97.19
3770.00,97.19
3769.00,97.19
3768.00,97.18
3767.00,97.18
3766.00,97.18
3765.00,97.18
3764.00,97.18
3763.00,97.18
3762.00,97.18
3761.00,97.18
3760.00,97.18
3759.00,97.18
3758.00,97.18
3757.00,97.18
3756.00,97.18
3755.00,97.18
3754.00,97.17
3753.00,97.17
3752.00,97.17
3751.00,97.17
3750.00,97.17
3749.00,97.17
3748.00,97.17
3747.00,97.17
3746.00,97.17
3745.00,97.17
3744.00,97.18
3743.00,97.18
3742.00,97.18
3741.00,97.18
3740.00,97.18
3739.00,97.18
3738.00,97.19
3737.00,97.19
3736.00,97.19
3735.00,97.19
3734.00,97.19
3733.00,97.19
3732.00,97.19
3731.00,97.19
3730.00,97.20
3729.00,97.20
3728.00,97.20
3727.00,97.20
3726.00,97.19
3725.00,97.19
3724.00,97.19
3723.00,97.19
3722.00,97.19
3721.00,97.19
3720.00,97.19
3719.00,97.18
3718.00,97.18
3717.00,97.18
3716.00,97.18
3715.00,97.18
3714.00,97.18
3713.00,97.18
3712.00,97.18
3711.00,97.17
3710.00,97.17
3709.00,97.17
3708.00,97.18
3707.00,97.18
3706.00,97.19
3705.00,97.19
3704.00,97.19
3703.00,97.19
3702.00,97.19
3701.00,97.19
3700.00,97.18
3699.00,97.18
3698.00,97.18
3697.00,97.18
3696.00,97.18
3695.00,97.18
3694.00,97.18
3693.00,97.18
3692.00,97.18
3691.00,97.18
3690.00,97.17
3689.00,97.17
3688.00,97.17
3687.00,97.17
3686.00,97.17
3685.00,97.16
3684.00,97.16
3683.00,97.16
3682.00,97.16
3681.00,97.15
3680.00,97.15
3679.00,97.15
3678.00,97.14
3677.00,97.14
3676.00,97.15
3675.00,97.16
3674.00,97.16
3673.00,97.16
3672.00,97.15
3671.00,97.15
3670.00,97.15
3669.00,97.15
3668.00,97.15
3667.00,97.15
3666.00,97.15
3665.00,97.15
3664.00,97.15
3663.00,97.15
3662.00,97.15
3661.00,97.15
3660.00,97.15
3659.00,97.16
3658.00,97.16
3657.00,97.17
3656.00,97.17
3655.00,97.17
3654.00,97.17
3653.00,97.17
3652.00,97.17
3651.00,97.17
3650.00,97.17
3649.00,97.17
3648.00,97.17
3647.00,97.17
3646.00,97.17
3645.00,97.17
3644.00,97.17
3643.00,97.17
3642.00,97.18
3641.00,97.18
3640.00,97.18
3639.00,97.18
3638.00,97.18
3637.00,97.19
3636.00,97.19
3635.00,97.19
3634.00,97.19
3633.00,97.19
3632.00,97.19
3631.00,97.19
3630.00,97.19
3629.00,97.19
3628.00,97.19
3627.00,97.19
3626.00,97.20
3625.00,97.20
3624.00,97.20
3623.00,97.19
3622.00,97.19
3621.00,97.19
3620.00,97.19
3619.00,97.19
3618.00,97.19
3617.00,97.19
3616.00,97.19
3615.00,97.18
3614.00,97.18
3613.00,97.17
3612.00,97.17
3611.00,97.17
3610.00,97.17
3609.00,97.17
3608.00,97.17
3607.00,97.17
3606.00,97.17
3605.00,97.17
3604.00,97.18
3603.00,97.18
3602.00,97.18
3601.00,97.18
3600.00,97.18
3599.00,97.18
3598.00,97.18
3597.00,97.18
3596.00,97.18
3595.00,97.18
3594.00,97.18
3593.00,97.18
3592.00,97.18
3591.00,97.18
3590.00,97.18
3589.00,97.18
3588.00,97.18
3587.00,97.18
3586.00,97.18
3585.00,97.18
3584.00,97.18
3583.00,97.18
3582.00,97.18
3581.00,97.18
3580.00,97.17
3579.00,97.17
3578.00,97.18
3577.00,97.18
3576.00,97.19
3575.00,97.19
3574.00,97.19
3573.00,97.18
3572.00,97.18
3571.00,97.18
3570.00,97.19
3569.00,97.19
3568.00,97.19
3567.00,97.19
3566.00,97.18
3565.00,97.18
3564.00,97.18
3563.00,97.18
3562.00,97.18
3561.00,97.18
3560.00,97.18
3559.00,97.18
3558.00,97.18
3557.00,97.18
3556.00,97.18
3555.00,97.18
3554.00,97.17
3553.00,97.17
3552.00,97.17
3551.00,97.17
3550.00,97.17
3549.00,97.16
3548.00,97.16
3547.00,97.15
3546.00,97.15
3545.00,97.15
3544.00,97.16
3543.00,97.16
3542.00,97.16
3541.00,97.16
3540.00,97.16
3539.00,97.16
3538.00,97.16
3537.00,97.16
3536.00,97.16
3535.00,97.15
3534.00,97.15
3533.00,97.15
3532.00,97.14
3531.00,97.14
3530.00,97.14
3529.00,97.14
3528.00,97.14
3527.00,97.14
3526.00,97.14
3525.00,97.14
3524.00,97.14
3523.00,97.14
3522.00,97.14
3521.00,97.15
3520.00,97.15
3519.00,97.15
3518.00,97.14
3517.00,97.13
3516.00,97.13
3515.00,97.13
3514.00,97.13
3513.00,97.13
3512.00,97.13
3511.00,97.13
3510.00,97.13
3509.00,97.13
3508.00,97.12
3507.00,97.12
3506.00,97.12
3505.00,97.12
3504.00,97.12
3503.00,97.12
3502.00,97.12
3501.00,97.12
3500.00,97.11
3499.00,97.11
3498.00,97.11
3497.00,97.11
3496.00,97.11
3495.00,97.11
3494.00,97.11
3493.00,97.11
3492.00,97.11
3491.00,97.10
3490.00,97.10
3489.00,97.10
3488.00,97.10
3487.00,97.10
3486.00,97.10
3485.00,97.10
3484.00,97.10
3483.00,97.10
3482.00,97.10
3481.00,97.09
3480.00,97.09
3479.00,97.09
3478.00,97.08
3477.00,97.08
3476.00,97.08
3475.00,97.08
3474.00,97.08
3473.00,97.08
3472.00,97.08
3471.00,97.09
3470.00,97.09
3469.00,97.09
3468.00,97.09
3467.00,97.08
3466.00,97.08
3465.00,97.08
3464.00,97.08
3463.00,97.08
3462.00,97.08
3461.00,97.08
3460.00,97.07
3459.00,97.07
3458.00,97.06
3457.00,97.06
3456.00,97.06
3455.00,97.07
3454.00,97.06
3453.00,97.06
3452.00,97.06
3451.00,97.06
3450.00,97.06
3449.00,97.06
3448.00,97.06
3447.00,97.07
3446.00,97.06
3445.00,97.06
3444.00,97.05
3443.00,97.05
3442.00,97.05
3441.00,97.05
3440.00,97.05
3439.00,97.05
3438.00,97.05
3437.00,97.05
3436.00,97.05
3435.00,97.05
3434.00,97.04
3433.00,97.04
3432.00,97.04
3431.00,97.04
3430.00,97.04
3429.00,97.04
3428.00,97.03
3427.00,97.03
3426.00,97.03
3425.00,97.03
3424.00,97.04
3423.00,97.04
3422.00,97.04
3421.00,97.04
3420.00,97.04
3419.00,97.04
3418.00,97.04
3417.00,97.04
3416.00,97.03
3415.00,97.03
3414.00,97.03
3413.00,97.03
3412.00,97.03
3411.00,97.03
3410.00,97.03
3409.00,97.03
3408.00,97.02
3407.00,97.02
3406.00,97.02
3405.00,97.02
3404.00,97.02
3403.00,97.03
3402.00,97.03
3401.00,97.03
3400.00,97.03
3399.00,97.03
3398.00,97.03
3397.00,97.03
3396.00,97.03
3395.00,97.02
3394.00,97.02
3393.00,97.02
3392.00,97.02
3391.00,97.02
3390.00,97.02
3389.00,97.02
3388.00,97.02
3387.00,97.02
3386.00,97.02
3385.00,97.02
3384.00,97.01
3383.00,97.01
3382.00,97.01
3381.00,97.01
3380.00,97.01
3379.00,97.01
3378.00,97.01
3377.00,97.01
3376.00,97.00
3375.00,97.00
3374.00,97.00
3373.00,97.00
3372.00,97.00
3371.00,97.00
3370.00,97.00
3369.00,97.00
3368.00,97.00
3367.00,97.00
3366.00,97.00
3365.00,97.00
3364.00,97.00
3363.00,97.00
3362.00,97.00
3361.00,97.00
3360.00,97.00
3359.00,96.99
3358.00,97.00
3357.00,97.00
3356.00,97.00
3355.00,97.00
3354.00,97.00
3353.00,97.00
3352.00,97.00
3351.00,97.00
3350.00,97.00
3349.00,96.99
3348.00,96.99
3347.00,96.99
3346.00,97.00
3345.00,97.00
3344.00,97.00
3343.00,96.99
3342.00,96.99
3341.00,96.99
3340.00,96.99
3339.00,96.99
3338.00,96.99
3337.00,96.99
3336.00,96.99
3335.00,96.99
3334.00,96.99
3333.00,96.99
3332.00,96.98
3331.00,96.98
3330.00,96.98
3329.00,96.99
3328.00,96.99
3327.00,97.00
3326.00,97.00
3325.00,97.00
3324.00,96.99
3323.00,96.99
3322.00,96.98
3321.00,96.98
3320.00,96.98
3319.00,96.98
3318.00,96.98
3317.00,96.98
3316.00,96.98
3315.00,96.98
3314.00,96.98
3313.00,96.98
3312.00,96.98
3311.00,96.98
3310.00,96.98
3309.00,96.98
3308.00,96.98
3307.00,96.98
3306.00,96.98
3305.00,96.98
3304.00,96.98
3303.00,96.98
3302.00,96.98
3301.00,96.98
3300.00,96.98
3299.00,96.99
3298.00,96.99
3297.00,96.99
3296.00,96.99
3295.00,96.98
3294.00,96.98
3293.00,96.98
3292.00,96.99
3291.00,96.99
3290.00,96.99
3289.00,96.99
3288.00,96.99
3287.00,96.99
3286.00,96.99
3285.00,96.99
3284.00,96.99
3283.00,96.99
3282.00,96.99
3281.00,97.00
3280.00,97.00
3279.00,96.99
3278.00,96.99
3277.00,96.99
3276.00,96.99
3275.00,96.99
3274.00,96.99
3273.00,96.99
3272.00,96.99
3271.00,96.99
3270.00,97.00
3269.00,97.00
3268.00,97.00
3267.00,97.00
3266.00,97.00
3265.00,96.99
3264.00,96.99
3263.00,96.99
3262.00,96.99
3261.00,96.99
3260.00,97.00
3259.00,97.00
3258.00,96.99
3257.00,96.99
3256.00,97.00
3255.00,97.00
3254.00,97.01
3253.00,97.01
3252.00,97.01
3251.00,97.01
3250.00,97.01
3249.00,97.01
3248.00,97.01
3247.00,97.01
3246.00,97.01
3245.00,97.01
3244.00,97.00
3243.00,97.00
3242.00,97.00
3241.00,97.00
3240.00,97.01
3239.00,97.01
3238.00,97.01
3237.00,97.02
3236.00,97.02
3235.00,97.02
3234.00,97.02
3233.00,97.02
3232.00,97.02
3231.00,97.02
3230.00,97.02
3229.00,97.02
3228.00,97.02
3227.00,97.02
3226.00,97.03
3225.00,97.03
3224.00,97.03
3223.00,97.03
3222.00,97.03
3221.00,97.03
3220.00,97.02
3219.00,97.02
3218.00,97.02
3217.00,97.02
3216.00,97.02
3215.00,97.03
3214.00,97.03
3213.00,97.03
3212.00,97.03
3211.00,97.02
3210.00,97.02
3209.00,97.02
3208.00,97.02
3207.00,97.03
3206.00,97.03
3205.00,97.03
3204.00,97.03
3203.00,97.03
3202.00,97.03
3201.00,97.03
3200.00,97.03
3199.00,97.03
3198.00,97.03
3197.00,97.03
3196.00,97.04
3195.00,97.04
3194.00,97.04
3193.00,97.04
3192.00,97.04
3191.00,97.04
3190.00,97.04
3189.00,97.04
3188.00,97.05
3187.00,97.05
3186.00,97.05
3185.00,97.05
3184.00,97.05
3183.00,97.05
3182.00,97.05
3181.00,97.05
3180.00,97.04
3179.00,97.04
3178.00,97.05
3177.00,97.05
3176.00,97.05
3175.00,97.05
3174.00,97.05
3173.00,97.06
3172.00,97.05
3171.00,97.05
3170.00,97.05
3169.00,97.05
3168.00,97.06
3167.00,97.06
3166.00,97.06
3165.00,97.06
3164.00,97.06
3163.00,97.06
3162.00,97.06
3161.00,97.05
3160.00,97.05
3159.00,97.05
3158.00,97.06
3157.00,97.06
3156.00,97.06
3155.00,97.06
3154.00,97.06
3153.00,97.06
3152.00,97.06
3151.00,97.06
3150.00,97.06
3149.00,97.06
3148.00,97.06
3147.00,97.06
3146.00,97.06
3145.00,97.06
3144.00,97.06
3143.00,97.06
3142.00,97.06
3141.00,97.06
3140.00,97.06
3139.00,97.06
3138.00,97.06
3137.00,97.06
3136.00,97.06
3135.00,97.06
3134.00,97.07
3133.00,97.07
3132.00,97.07
3131.00,97.07
3130.00,97.07
3129.00,97.06
3128.00,97.06
3127.00,97.06
3126.00,97.06
3125.00,97.06
3124.00,97.06
3123.00,97.06
3122.00,97.06
3121.00,97.06
3120.00,97.06
3119.00,97.07
3118.00,97.07
3117.00,97.07
3116.00,97.07
3115.00,97.07
3114.00,97.07
3113.00,97.06
3112.00,97.06
3111.00,97.06
3110.00,97.06
3109.00,97.06
3108.00,97.06
3107.00,97.06
3106.00,97.06
3105.00,97.06
3104.00,97.06
3103.00,97.06
3102.00,97.06
3101.00,97.06
3100.00,97.06
3099.00,97.06
3098.00,97.06
3097.00,97.06
3096.00,97.06
3095.00,97.06
3094.00,97.06
3093.00,97.05
3092.00,97.05
3091.00,97.05
3090.00,97.05
3089.00,97.05
3088.00,97.05
3087.00,97.05
3086.00,97.05
3085.00,97.05
3084.00,97.05
3083.00,97.05
3082.00,97.05
3081.00,97.05
3080.00,97.05
3079.00,97.05
3078.00,97.05
3077.00,97.04
3076.00,97.04
3075.00,97.04
3074.00,97.04
3073.00,97.05
3072.00,97.05
3071.00,97.05
3070.00,97.04
3069.00,97.04
3068.00,97.03
3067.00,97.04
3066.00,97.04
3065.00,97.04
3064.00,97.04
3063.00,97.05
3062.00,97.04
3061.00,97.04
3060.00,97.03
3059.00,97.03
3058.00,97.03
3057.00,97.03
3056.00,97.03
3055.00,97.03
3054.00,97.03
3053.00,97.03
3052.00,97.03
3051.00,97.03
3050.00,97.03
3049.00,97.03
3048.00,97.02
3047.00,97.02
3046.00,97.02
3045.00,97.02
3044.00,97.02
3043.00,97.02
3042.00,97.02
3041.00,97.02
3040.00,97.02
3039.00,97.02
3038.00,97.02
3037.00,97.01
3036.00,97.01
3035.00,97.00
3034.00,97.00
3033.00,97.00
3032.00,97.00
3031.00,97.00
3030.00,96.99
3029.00,96.99
3028.00,96.99
3027.00,96.99
3026.00,96.99
3025.00,96.99
3024.00,96.98
3023.00,96.98
3022.00,96.98
3021.00,96.98
3020.00,96.98
3019.00,96.97
3018.00,96.97
3017.00,96.97
3016.00,96.97
3015.00,96.97
3014.00,96.96
3013.00,96.96
3012.00,96.96
3011.00,96.96
3010.00,96.96
3009.00,96.96
3008.00,96.95
3007.00,96.95
3006.00,96.94
3005.00,96.93
3004.00,96.93
3003.00,96.92
3002.00,96.91
3001.00,96.90
3000.00,96.89
2999.00,96.87
2998.00,96.86
2997.00,96.84
2996.00,96.83
2995.00,96.81
2994.00,96.78
2993.00,96.75
2992.00,96.72
2991.00,96.68
2990.00,96.63
2989.00,96.58
2988.00,96.52
2987.00,96.45
2986.00,96.37
2985.00,96.29
2984.00,96.21
2983.00,96.12
2982.00,96.02
2981.00,95.92
2980.00,95.83
2979.00,95.73
2978.00,95.64
2977.00,95.56
2976.00,95.49
2975.00,95.42
2974.00,95.37
2973.00,95.32
2972.00,95.28
2971.00,95.26
2970.00,95.24
2969.00,95.23
2968.00,95.24
2967.00,95.25
2966.00,95.27
2965.00,95.30
2964.00,95.33
2963.00,95.37
2962.00,95.40
2961.00,95.44
2960.00,95.48
2959.00,95.51
2958.00,95.53
2957.00,95.56
2956.00,95.57
2955.00,95.58
2954.00,95.59
2953.00,95.58
2952.00,95.58
2951.00,95.57
2950.00,95.55
2949.00,95.54
2948.00,95.52
2947.00,95.49
2946.00,95.45
2945.00,95.42
2944.00,95.38
2943.00,95.35
2942.00,95.31
2941.00,95.27
2940.00,95.24
2939.00,95.20
2938.00,95.17
2937.00,95.13
2936.00,95.10
2935.00,95.07
2934.00,95.04
2933.00,95.02
2932.00,94.99
2931.00,94.95
2930.00,94.92
2929.00,94.88
2928.00,94.84
2927.00,94.80
2926.00,94.75
2925.00,94.69
2924.00,94.62
2923.00,94.54
2922.00,94.45
2921.00,94.36
2920.00,94.26
2919.00,94.16
2918.00,94.06
2917.00,93.96
2916.00,93.86
2915.00,93.77
2914.00,93.70
2913.00,93.63
2912.00,93.59
2911.00,93.57
2910.00,93.57
2909.00,93.60
2908.00,93.66
2907.00,93.75
2906.00,93.86
2905.00,93.99
2904.00,94.14
2903.00,94.30
2902.00,94.48
2901.00,94.65
2900.00,94.84
2899.00,95.02
2898.00,95.19
2897.00,95.36
2896.00,95.52
2895.00,95.65
2894.00,95.78
2893.00,95.88
2892.00,95.97
2891.00,96.05
2890.00,96.11
2889.00,96.17
2888.00,96.21
2887.00,96.25
2886.00,96.29
2885.00,96.32
2884.00,96.35
2883.00,96.37
2882.00,96.39
2881.00,96.41
2880.00,96.42
2879.00,96.43
2878.00,96.44
2877.00,96.45
2876.00,96.45
2875.00,96.46
2874.00,96.46
2873.00,96.47
2872.00,96.47
2871.00,96.47
2870.00,96.47
2869.00,96.48
2868.00,96.48
2867.00,96.48
2866.00,96.48
2865.00,96.47
2864.00,96.47
2863.00,96.46
2862.00,96.46
2861.00,96.45
2860.00,96.44
2859.00,96.43
2858.00,96.42
2857.00,96.41
2856.00,96.40
2855.00,96.39
2854.00,96.37
2853.00,96.36
2852.00,96.35
2851.00,96.34
2850.00,96.34
2849.00,96.34
2848.00,96.34
2847.00,96.34
2846.00,96.34
2845.00,96.35
2844.00,96.35
2843.00,96.36
2842.00,96.37
2841.00,96.39
2840.00,96.41
2839.00,96.43
2838.00,96.45
2837.00,96.48
2836.00,96.50
2835.00,96.52
2834.00,96.53
2833.00,96.54
2832.00,96.55
2831.00,96.56
2830.00,96.56
2829.00,96.56
2828.00,96.56
2827.00,96.56
2826.00,96.55
2825.00,96.54
2824.00,96.52
2823.00,96.51
2822.00,96.49
2821.00,96.47
2820.00,96.46
2819.00,96.44
2818.00,96.43
2817.00,96.43
2816.00,96.43
2815.00,96.44
2814.00,96.46
2813.00,96.48
2812.00,96.50
2811.00,96.53
2810.00,96.56
2809.00,96.58
2808.00,96.61
2807.00,96.63
2806.00,96.65
2805.00,96.67
2804.00,96.68
2803.00,96.70
2802.00,96.71
2801.00,96.72
2800.00,96.73
2799.00,96.73
2798.00,96.74
2797.00,96.74
2796.00,96.75
2795.00,96.75
2794.00,96.76
2793.00,96.76
2792.00,96.77
2791.00,96.77
2790.00,96.77
2789.00,96.78
2788.00,96.78
2787.00,96.79
2786.00,96.79
2785.00,96.80
2784.00,96.80
2783.00,96.81
2782.00,96.81
2781.00,96.82
2780.00,96.82
2779.00,96.82
2778.00,96.82
2777.00,96.82
2776.00,96.82
2775.00,96.82
2774.00,96.82
2773.00,96.83
2772.00,96.83
2771.00,96.83
2770.00,96.83
2769.00,96.83
2768.00,96.83
2767.00,96.83
2766.00,96.83
2765.00,96.83
2764.00,96.83
2763.00,96.83
2762.00,96.83
2761.00,96.83
2760.00,96.83
2759.00,96.82
2758.00,96.82
2757.00,96.82
2756.00,96.82
2755.00,96.82
2754.00,96.81
2753.00,96.81
2752.00,96.81
2751.00,96.80
2750.00,96.81
2749.00,96.81
2748.00,96.80
2747.00,96.80
2746.00,96.80
2745.00,96.80
2744.00,96.80
2743.00,96.80
2742.00,96.79
2741.00,96.79
2740.00,96.79
2739.00,96.79
2738.00,96.79
2737.00,96.80
2736.00,96.80
2735.00,96.80
2734.00,96.80
2733.00,96.80
2732.00,96.80
2731.00,96.81
2730.00,96.81
2729.00,96.81
2728.00,96.81
2727.00,96.81
2726.00,96.81
2725.00,96.81
2724.00,96.81
2723.00,96.81
2722.00,96.82
2721.00,96.82
2720.00,96.82
2719.00,96.82
2718.00,96.83
2717.00,96.83
2716.00,96.83
2715.00,96.83
2714.00,96.83
2713.00,96.83
2712.00,96.84
2711.00,96.84
2710.00,96.84
2709.00,96.84
2708.00,96.84
2707.00,96.83
2706.00,96.83
2705.00,96.83
2704.00,96.84
2703.00,96.84
2702.00,96.84
2701.00,96.84
2700.00,96.84
2699.00,96.84
2698.00,96.84
2697.00,96.84
2696.00,96.84
2695.00,96.84
2694.00,96.84
2693.00,96.84
2692.00,96.84
2691.00,96.84
2690.00,96.84
2689.00,96.84
2688.00,96.84
2687.00,96.84
2686.00,96.84
2685.00,96.83
2684.00,96.84
2683.00,96.84
2682.00,96.84
2681.00,96.84
2680.00,96.84
2679.00,96.84
2678.00,96.84
2677.00,96.84
2676.00,96.84
2675.00,96.84
2674.00,96.83
2673.00,96.83
2672.00,96.84
2671.00,96.84
2670.00,96.84
2669.00,96.84
2668.00,96.83
2667.00,96.83
2666.00,96.82
2665.00,96.82
2664.00,96.81
2663.00,96.80
2662.00,96.79
2661.00,96.78
2660.00,96.77
2659.00,96.76
2658.00,96.75
2657.00,96.75
2656.00,96.74
2655.00,96.74
2654.00,96.73
2653.00,96.73
2652.00,96.72
2651.00,96.72
2650.00,96.72
2649.00,96.71
2648.00,96.71
2647.00,96.71
2646.00,96.71
2645.00,96.71
2644.00,96.70
2643.00,96.70
2642.00,96.69
2641.00,96.69
2640.00,96.69
2639.00,96.68
2638.00,96.68
2637.00,96.68
2636.00,96.68
2635.00,96.67
2634.00,96.67
2633.00,96.67
2632.00,96.67
2631.00,96.67
2630.00,96.67
2629.00,96.67
2628.00,96.66
2627.00,96.66
2626.00,96.66
2625.00,96.66
2624.00,96.66
2623.00,96.66
2622.00,96.65
2621.00,96.65
2620.00,96.65
2619.00,96.65
2618.00,96.65
2617.00,96.65
2616.00,96.64
2615.00,96.64
2614.00,96.64
2613.00,96.64
2612.00,96.65
2611.00,96.65
2610.00,96.65
2609.00,96.65
2608.00,96.64
2607.00,96.64
2606.00,96.64
2605.00,96.63
2604.00,96.64
2603.00,96.64
2602.00,96.64
2601.00,96.64
2600.00,96.64
2599.00,96.64
2598.00,96.63
2597.00,96.63
2596.00,96.63
2595.00,96.63
2594.00,96.63
2593.00,96.63
2592.00,96.63
2591.00,96.63
2590.00,96.63
2589.00,96.63
2588.00,96.63
2587.00,96.63
2586.00,96.63
2585.00,96.63
2584.00,96.63
2583.00,96.63
2582.00,96.63
2581.00,96.63
2580.00,96.62
2579.00,96.62
2578.00,96.63
2577.00,96.62
2576.00,96.62
2575.00,96.62
2574.00,96.61
2573.00,96.61
2572.00,96.61
2571.00,96.62
2570.00,96.62
2569.00,96.62
2568.00,96.62
2567.00,96.62
2566.00,96.62
2565.00,96.62
2564.00,96.62
2563.00,96.62
2562.00,96.62
2561.00,96.62
2560.00,96.62
2559.00,96.61
2558.00,96.61
2557.00,96.61
2556.00,96.61
2555.00,96.60
2554.00,96.60
2553.00,96.60
2552.00,96.60
2551.00,96.60
2550.00,96.60
2549.00,96.61
2548.00,96.61
2547.00,96.62
2546.00,96.62
2545.00,96.62
2544.00,96.62
2543.00,96.62
2542.00,96.62
2541.00,96.62
2540.00,96.62
2539.00,96.62
2538.00,96.62
2537.00,96.62
2536.00,96.62
2535.00,96.62
2534.00,96.62
2533.00,96.62
2532.00,96.62
2531.00,96.62
2530.00,96.62
2529.00,96.63
2528.00,96.63
2527.00,96.63
2526.00,96.63
2525.00,96.63
2524.00,96.63
2523.00,96.63
2522.00,96.63
2521.00,96.64
2520.00,96.64
2519.00,96.64
2518.00,96.65
2517.00,96.65
2516.00,96.65
2515.00,96.65
2514.00,96.65
2513.00,96.64
2512.00,96.64
2511.00,96.64
2510.00,96.64
2509.00,96.64
2508.00,96.64
2507.00,96.64
2506.00,96.64
2505.00,96.64
2504.00,96.64
2503.00,96.64
2502.00,96.64
2501.00,96.65
2500.00,96.65
2499.00,96.64
2498.00,96.64
2497.00,96.64
2496.00,96.64
2495.00,96.64
2494.00,96.64
2493.00,96.65
2492.00,96.65
2491.00,96.65
2490.00,96.65
2489.00,96.65
2488.00,96.65
2487.00,96.65
2486.00,96.65
2485.00,96.65
2484.00,96.65
2483.00,96.65
2482.00,96.65
2481.00,96.65
2480.00,96.65
2479.00,96.65
2478.00,96.65
2477.00,96.64
2476.00,96.64
2475.00,96.64
2474.00,96.65
2473.00,96.65
2472.00,96.65
2471.00,96.65
2470.00,96.65
2469.00,96.65
2468.00,96.65
2467.00,96.65
2466.00,96.65
2465.00,96.64
2464.00,96.64
2463.00,96.63
2462.00,96.63
2461.00,96.62
2460.00,96.63
2459.00,96.63
2458.00,96.63
2457.00,96.62
2456.00,96.62
2455.00,96.62
2454.00,96.62
2453.00,96.62
2452.00,96.62
2451.00,96.61
2450.00,96.61
2449.00,96.61
2448.00,96.61
2447.00,96.62
2446.00,96.62
2445.00,96.62
2444.00,96.62
2443.00,96.62
2442.00,96.62
2441.00,96.62
2440.00,96.63
2439.00,96.63
2438.00,96.63
2437.00,96.64
2436.00,96.64
2435.00,96.64
2434.00,96.64
2433.00,96.64
2432.00,96.64
2431.00,96.65
2430.00,96.65
2429.00,96.65
2428.00,96.65
2427.00,96.65
2426.00,96.65
2425.00,96.65
2424.00,96.65
2423.00,96.65
2422.00,96.66
2421.00,96.66
2420.00,96.66
2419.00,96.66
2418.00,96.66
2417.00,96.66
2416.00,96.66
2415.00,96.66
2414.00,96.66
2413.00,96.66
2412.00,96.66
2411.00,96.66
2410.00,96.66
2409.00,96.66
2408.00,96.67
2407.00,96.68
2406.00,96.70
2405.00,96.71
2404.00,96.71
2403.00,96.72
2402.00,96.72
2401.00,96.72
2400.00,96.72
2399.00,96.72
2398.00,96.72
2397.00,96.72
2396.00,96.72
2395.00,96.72
2394.00,96.73
2393.00,96.73
2392.00,96.73
2391.00,96.73
2390.00,96.73
2389.00,96.74
2388.00,96.74
2387.00,96.75
2386.00,96.76
2385.00,96.77
2384.00,96.78
2383.00,96.80
2382.00,96.82
2381.00,96.84
2380.00,96.86
2379.00,96.88
2378.00,96.91
2377.00,96.92
2376.00,96.94
2375.00,96.95
2374.00,96.95
2373.00,96.94
2372.00,96.93
2371.00,96.93
2370.00,96.92
2369.00,96.92
2368.00,96.92
2367.00,96.93
2366.00,96.94
2365.00,96.95
2364.00,96.95
2363.00,96.95
2362.00,96.94
2361.00,96.94
2360.00,96.94
2359.00,96.95
2358.00,96.95
2357.00,96.93
2356.00,96.92
2355.00,96.92
2354.00,96.92
2353.00,96.92
2352.00,96.93
2351.00,96.93
2350.00,96.93
2349.00,96.92
2348.00,96.91
2347.00,96.91
2346.00,96.91
2345.00,96.92
2344.00,96.92
2343.00,96.90
2342.00,96.89
2341.00,96.87
2340.00,96.85
2339.00,96.84
2338.00,96.83
2337.00,96.82
2336.00,96.82
2335.00,96.81
2334.00,96.81
2333.00,96.81
2332.00,96.81
2331.00,96.81
2330.00,96.81
2329.00,96.80
2328.00,96.77
2327.00,96.72
2326.00,96.65
2325.00,96.58
2324.00,96.53
2323.00,96.51
2322.00,96.53
2321.00,96.56
2320.00,96.59
2319.00,96.60
2318.00,96.61
2317.00,96.61
2316.00,96.61
2315.00,96.61
2314.00,96.62
2313.00,96.63
2312.00,96.63
2311.00,96.63
2310.00,96.62
2309.00,96.62
2308.00,96.61
2307.00,96.60
2306.00,96.59
2305.00,96.58
2304.00,96.57
2303.00,96.56
2302.00,96.55
2301.00,96.54
2300.00,96.53
2299.00,96.51
2298.00,96.50
2297.00,96.49
2296.00,96.48
2295.00,96.47
2294.00,96.45
2293.00,96.43
2292.00,96.40
2291.00,96.38
2290.00,96.36
2289.00,96.34
2288.00,96.32
2287.00,96.30
2286.00,96.28
2285.00,96.28
2284.00,96.28
2283.00,96.29
2282.00,96.30
2281.00,96.31
2280.00,96.31
2279.00,96.32
2278.00,96.32
2277.00,96.32
2276.00,96.32
2275.00,96.33
2274.00,96.33
2273.00,96.33
2272.00,96.33
2271.00,96.33
2270.00,96.33
2269.00,96.33
2268.00,96.33
2267.00,96.34
2266.00,96.35
2265.00,96.36
2264.00,96.37
2263.00,96.37
2262.00,96.37
2261.00,96.37
2260.00,96.35
2259.00,96.33
2258.00,96.32
2257.00,96.31
2256.00,96.31
2255.00,96.33
2254.00,96.35
2253.00,96.36
2252.00,96.37
2251.00,96.37
2250.00,96.36
2249.00,96.36
2248.00,96.35
2247.00,96.35
2246.00,96.34
2245.00,96.34
2244.00,96.33
2243.00,96.33
2242.00,96.33
2241.00,96.32
2240.00,96.31
2239.00,96.31
2238.00,96.30
2237.00,96.31
2236.00,96.31
2235.00,96.31
2234.00,96.31
2233.00,96.30
2232.00,96.29
2231.00,96.29
2230.00,96.29
2229.00,96.30
2228.00,96.30
2227.00,96.31
2226.00,96.31
2225.00,96.31
2224.00,96.31
2223.00,96.31
2222.00,96.30
2221.00,96.30
2220.00,96.29
2219.00,96.28
2218.00,96.29
2217.00,96.29
2216.00,96.29
2215.00,96.29
2214.00,96.29
2213.00,96.28
2212.00,96.27
2211.00,96.27
2210.00,96.27
2209.00,96.26
2208.00,96.26
2207.00,96.26
2206.00,96.26
2205.00,96.27
2204.00,96.27
2203.00,96.26
2202.00,96.25
2201.00,96.24
2200.00,96.24
2199.00,96.23
2198.00,96.23
2197.00,96.23
2196.00,96.22
2195.00,96.21
2194.00,96.19
2193.00,96.17
2192.00,96.15
2191.00,96.15
2190.00,96.15
2189.00,96.14
2188.00,96.14
2187.00,96.12
2186.00,96.10
2185.00,96.09
2184.00,96.09
2183.00,96.11
2182.00,96.15
2181.00,96.19
2180.00,96.21
2179.00,96.21
2178.00,96.19
2177.00,96.19
2176.00,96.20
2175.00,96.21
2174.00,96.22
2173.00,96.22
2172.00,96.19
2171.00,96.16
2170.00,96.10
2169.00,96.04
2168.00,95.99
2167.00,95.96
2166.00,95.95
2165.00,95.94
2164.00,95.92
2163.00,95.88
2162.00,95.84
2161.00,95.86
2160.00,95.99
2159.00,96.23
2158.00,96.48
2157.00,96.66
2156.00,96.73
2155.00,96.72
2154.00,96.68
2153.00,96.63
2152.00,96.60
2151.00,96.56
2150.00,96.53
2149.00,96.50
2148.00,96.49
2147.00,96.50
2146.00,96.53
2145.00,96.56
2144.00,96.58
2143.00,96.58
2142.00,96.57
2141.00,96.56
2140.00,96.54
2139.00,96.53
2138.00,96.53
2137.00,96.56
2136.00,96.60
2135.00,96.66
2134.00,96.71
2133.00,96.73
2132.00,96.73
2131.00,96.72
2130.00,96.69
2129.00,96.67
2128.00,96.64
2127.00,96.62
2126.00,96.59
2125.00,96.57
2124.00,96.54
2123.00,96.52
2122.00,96.51
2121.00,96.50
2120.00,96.49
2119.00,96.48
2118.00,96.46
2117.00,96.44
2116.00,96.41
2115.00,96.39
2114.00,96.37
2113.00,96.37
2112.00,96.37
2111.00,96.37
2110.00,96.37
2109.00,96.37
2108.00,96.37
2107.00,96.37
2106.00,96.37
2105.00,96.36
2104.00,96.36
2103.00,96.36
2102.00,96.36
2101.00,96.36
2100.00,96.35
2099.00,96.35
2098.00,96.36
2097.00,96.38
2096.00,96.41
2095.00,96.44
2094.00,96.47
2093.00,96.47
2092.00,96.46
2091.00,96.44
2090.00,96.42
2089.00,96.40
2088.00,96.37
2087.00,96.35
2086.00,96.33
2085.00,96.32
2084.00,96.30
2083.00,96.29
2082.00,96.29
2081.00,96.28
2080.00,96.27
2079.00,96.27
2078.00,96.27
2077.00,96.28
2076.00,96.28
2075.00,96.28
2074.00,96.27
2073.00,96.26
2072.00,96.25
2071.00,96.25
2070.00,96.25
2069.00,96.26
2068.00,96.26
2067.00,96.27
2066.00,96.27
2065.00,96.27
2064.00,96.26
2063.00,96.26
2062.00,96.27
2061.00,96.27
2060.00,96.28
2059.00,96.28
2058.00,96.26
2057.00,96.24
2056.00,96.21
2055.00,96.20
2054.00,96.19
2053.00,96.15
2052.00,96.08
2051.00,96.01
2050.00,95.98
2049.00,95.99
2048.00,96.04
2047.00,96.07
2046.00,96.09
2045.00,96.09
2044.00,96.09
2043.00,96.10
2042.00,96.10
2041.00,96.09
2040.00,96.07
2039.00,96.04
2038.00,96.02
2037.00,96.01
2036.00,96.00
2035.00,96.01
2034.00,96.03
2033.00,96.06
2032.00,96.10
2031.00,96.13
2030.00,96.16
2029.00,96.17
2028.00,96.16
2027.00,96.15
2026.00,96.14
2025.00,96.15
2024.00,96.17
2023.00,96.18
2022.00,96.19
2021.00,96.19
2020.00,96.18
2019.00,96.17
2018.00,96.17
2017.00,96.18
2016.00,96.18
2015.00,96.16
2014.00,96.15
2013.00,96.15
2012.00,96.15
2011.00,96.15
2010.00,96.15
2009.00,96.15
2008.00,96.18
2007.00,96.22
2006.00,96.28
2005.00,96.31
2004.00,96.32
2003.00,96.30
2002.00,96.28
2001.00,96.26
2000.00,96.24
1999.00,96.22
1998.00,96.21
1997.00,96.20
1996.00,96.18
1995.00,96.17
1994.00,96.16
1993.00,96.16
1992.00,96.14
1991.00,96.13
1990.00,96.12
1989.00,96.11
1988.00,96.10
1987.00,96.09
1986.00,96.08
1985.00,96.07
1984.00,96.05
1983.00,96.01
1982.00,95.95
1981.00,95.88
1980.00,95.83
1979.00,95.84
1978.00,95.92
1977.00,96.04
1976.00,96.13
1975.00,96.19
1974.00,96.22
1973.00,96.24
1972.00,96.26
1971.00,96.27
1970.00,96.28
1969.00,96.28
1968.00,96.27
1967.00,96.26
1966.00,96.27
1965.00,96.28
1964.00,96.29
1963.00,96.30
1962.00,96.31
1961.00,96.34
1960.00,96.37
1959.00,96.40
1958.00,96.41
1957.00,96.40
1956.00,96.38
1955.00,96.37
1954.00,96.37
1953.00,96.37
1952.00,96.39
1951.00,96.40
1950.00,96.40
1949.00,96.40
1948.00,96.39
1947.00,96.39
1946.00,96.39
1945.00,96.39
1944.00,96.39
1943.00,96.40
1942.00,96.41
1941.00,96.41
1940.00,96.41
1939.00,96.41
1938.00,96.41
1937.00,96.41
1936.00,96.42
1935.00,96.43
1934.00,96.44
1933.00,96.44
1932.00,96.44
1931.00,96.44
1930.00,96.45
1929.00,96.45
1928.00,96.46
1927.00,96.47
1926.00,96.47
1925.00,96.47
1924.00,96.47
1923.00,96.46
1922.00,96.46
1921.00,96.46
1920.00,96.46
1919.00,96.46
1918.00,96.46
1917.00,96.46
1916.00,96.45
1915.00,96.45
1914.00,96.44
1913.00,96.44
1912.00,96.44
1911.00,96.45
1910.00,96.45
1909.00,96.45
1908.00,96.45
1907.00,96.45
1906.00,96.45
1905.00,96.45
1904.00,96.46
1903.00,96.47
1902.00,96.47
1901.00,96.47
1900.00,96.47
1899.00,96.47
1898.00,96.47
1897.00,96.47
1896.00,96.46
1895.00,96.46
1894.00,96.46
1893.00,96.47
1892.00,96.48
1891.00,96.48
1890.00,96.48
1889.00,96.49
1888.00,96.50
1887.00,96.51
1886.00,96.51
1885.00,96.51
1884.00,96.51
1883.00,96.50
1882.00,96.50
1881.00,96.50
1880.00,96.50
1879.00,96.50
1878.00,96.51
1877.00,96.51
1876.00,96.51
1875.00,96.51
1874.00,96.50
1873.00,96.50
1872.00,96.50
1871.00,96.50
1870.00,96.50
1869.00,96.50
1868.00,96.51
1867.00,96.51
1866.00,96.51
1865.00,96.51
1864.00,96.52
1863.00,96.52
1862.00,96.52
1861.00,96.52
1860.00,96.51
1859.00,96.52
1858.00,96.52
1857.00,96.53
1856.00,96.53
1855.00,96.53
1854.00,96.53
1853.00,96.53
1852.00,96.53
1851.00,96.53
1850.00,96.53
1849.00,96.53
1848.00,96.53
1847.00,96.53
1846.00,96.53
1845.00,96.54
1844.00,96.55
1843.00,96.55
1842.00,96.55
1841.00,96.55
1840.00,96.54
1839.00,96.54
1838.00,96.54
1837.00,96.54
1836.00,96.55
1835.00,96.55
1834.00,96.55
1833.00,96.55
1832.00,96.54
1831.00,96.54
1830.00,96.54
1829.00,96.54
1828.00,96.54
1827.00,96.54
1826.00,96.54
1825.00,96.54
1824.00,96.54
1823.00,96.54
1822.00,96.54
1821.00,96.55
1820.00,96.56
1819.00,96.57
1818.00,96.60
1817.00,96.61
1816.00,96.62
1815.00,96.61
1814.00,96.60
1813.00,96.59
1812.00,96.58
1811.00,96.58
1810.00,96.58
1809.00,96.57
1808.00,96.56
1807.00,96.56
1806.00,96.56
1805.00,96.56
1804.00,96.56
1803.00,96.56
1802.00,96.56
1801.00,96.56
1800.00,96.55
1799.00,96.55
1798.00,96.55
1797.00,96.56
1796.00,96.56
1795.00,96.57
1794.00,96.57
1793.00,96.57
1792.00,96.57
1791.00,96.56
1790.00,96.56
1789.00,96.56
1788.00,96.56
1787.00,96.56
1786.00,96.56
1785.00,96.56
1784.00,96.56
1783.00,96.56
1782.00,96.55
1781.00,96.55
1780.00,96.56
1779.00,96.56
1778.00,96.57
1777.00,96.57
1776.00,96.57
1775.00,96.57
1774.00,96.58
1773.00,96.58
1772.00,96.58
1771.00,96.57
1770.00,96.57
1769.00,96.56
1768.00,96.55
1767.00,96.55
1766.00,96.55
1765.00,96.54
1764.00,96.54
1763.00,96.53
1762.00,96.53
1761.00,96.52
1760.00,96.51
1759.00,96.50
1758.00,96.48
1757.00,96.46
1756.00,96.44
1755.00,96.42
1754.00,96.40
1753.00,96.37
1752.00,96.34
1751.00,96.30
1750.00,96.26
1749.00,96.22
1748.00,96.19
1747.00,96.16
1746.00,96.14
1745.00,96.11
1744.00,96.09
1743.00,96.07
1742.00,96.05
1741.00,96.03
1740.00,96.02
1739.00,96.02
1738.00,96.02
1737.00,96.02
1736.00,96.03
1735.00,96.04
1734.00,96.05
1733.00,96.07
1732.00,96.08
1731.00,96.09
1730.00,96.11
1729.00,96.13
1728.00,96.15
1727.00,96.17
1726.00,96.18
1725.00,96.19
1724.00,96.21
1723.00,96.22
1722.00,96.24
1721.00,96.25
1720.00,96.26
1719.00,96.28
1718.00,96.29
1717.00,96.29
1716.00,96.30
1715.00,96.30
1714.00,96.31
1713.00,96.33
1712.00,96.34
1711.00,96.35
1710.00,96.36
1709.00,96.37
1708.00,96.38
1707.00,96.39
1706.00,96.40
1705.00,96.41
1704.00,96.42
1703.00,96.42
1702.00,96.44
1701.00,96.45
1700.00,96.47
1699.00,96.48
1698.00,96.48
1697.00,96.48
1696.00,96.48
1695.00,96.49
1694.00,96.49
1693.00,96.50
1692.00,96.50
1691.00,96.51
1690.00,96.51
1689.00,96.51
1688.00,96.52
1687.00,96.52
1686.00,96.52
1685.00,96.51
1684.00,96.51
1683.00,96.51
1682.00,96.52
1681.00,96.52
1680.00,96.52
1679.00,96.53
1678.00,96.53
1677.00,96.53
1676.00,96.54
1675.00,96.54
1674.00,96.54
1673.00,96.53
1672.00,96.53
1671.00,96.53
1670.00,96.53
1669.00,96.53
1668.00,96.53
1667.00,96.53
1666.00,96.53
1665.00,96.53
1664.00,96.53
1663.00,96.54
1662.00,96.54
1661.00,96.53
1660.00,96.53
1659.00,96.53
1658.00,96.53
1657.00,96.53
1656.00,96.53
1655.00,96.54
1654.00,96.54
1653.00,96.54
1652.00,96.54
1651.00,96.54
1650.00,96.54
1649.00,96.54
1648.00,96.54
1647.00,96.53
1646.00,96.53
1645.00,96.54
1644.00,96.54
1643.00,96.54
1642.00,96.55
1641.00,96.55
1640.00,96.55
1639.00,96.55
1638.00,96.55
1637.00,96.55
1636.00,96.55
1635.00,96.55
1634.00,96.55
1633.00,96.55
1632.00,96.55
1631.00,96.55
1630.00,96.55
1629.00,96.56
1628.00,96.56
1627.00,96.56
1626.00,96.56
1625.00,96.56
1624.00,96.56
1623.00,96.55
1622.00,96.55
1621.00,96.55
1620.00,96.55
1619.00,96.55
1618.00,96.54
1617.00,96.54
1616.00,96.54
1615.00,96.53
1614.00,96.53
1613.00,96.52
1612.00,96.52
1611.00,96.52
1610.00,96.51
1609.00,96.51
1608.00,96.51
1607.00,96.50
1606.00,96.50
1605.00,96.51
1604.00,96.51
1603.00,96.51
1602.00,96.52
1601.00,96.52
1600.00,96.52
1599.00,96.52
1598.00,96.52
1597.00,96.53
1596.00,96.54
1595.00,96.55
1594.00,96.56
1593.00,96.56
1592.00,96.56
1591.00,96.56
1590.00,96.57
1589.00,96.57
1588.00,96.56
1587.00,96.56
1586.00,96.56
1585.00,96.56
1584.00,96.57
1583.00,96.57
1582.00,96.57
1581.00,96.57
1580.00,96.57
1579.00,96.57
1578.00,96.57
1577.00,96.57
1576.00,96.56
1575.00,96.56
1574.00,96.57
1573.00,96.57
1572.00,96.57
1571.00,96.57
1570.00,96.57
1569.00,96.57
1568.00,96.57
1567.00,96.57
1566.00,96.57
1565.00,96.56
1564.00,96.57
1563.00,96.57
1562.00,96.57
1561.00,96.57
1560.00,96.57
1559.00,96.57
1558.00,96.57
1557.00,96.58
1556.00,96.58
1555.00,96.58
1554.00,96.58
1553.00,96.58
1552.00,96.58
1551.00,96.58
1550.00,96.58
1549.00,96.58
1548.00,96.57
1547.00,96.58
1546.00,96.58
1545.00,96.58
1544.00,96.58
1543.00,96.58
1542.00,96.58
1541.00,96.58
1540.00,96.58
1539.00,96.58
1538.00,96.58
1537.00,96.58
1536.00,96.58
1535.00,96.58
1534.00,96.58
1533.00,96.59
1532.00,96.59
1531.00,96.59
1530.00,96.59
1529.00,96.58
1528.00,96.58
1527.00,96.58
1526.00,96.59
1525.00,96.59
1524.00,96.59
1523.00,96.58
1522.00,96.58
1521.00,96.58
1520.00,96.58
1519.00,96.58
1518.00,96.59
1517.00,96.59
1516.00,96.59
1515.00,96.59
1514.00,96.59
1513.00,96.59
1512.00,96.59
1511.00,96.59
1510.00,96.59
1509.00,96.59
1508.00,96.58
1507.00,96.58
1506.00,96.58
1505.00,96.58
1504.00,96.58
1503.00,96.57
1502.00,96.57
1501.00,96.57
1500.00,96.57
1499.00,96.57
1498.00,96.56
1497.00,96.56
1496.00,96.56
1495.00,96.56
1494.00,96.57
1493.00,96.56
1492.00,96.56
1491.00,96.55
1490.00,96.55
1489.00,96.54
1488.00,96.54
1487.00,96.53
1486.00,96.54
1485.00,96.53
1484.00,96.53
1483.00,96.53
1482.00,96.52
1481.00,96.51
1480.00,96.50
1479.00,96.50
1478.00,96.49
1477.00,96.49
1476.00,96.48
1475.00,96.47
1474.00,96.46
1473.00,96.45
1472.00,96.43
1471.00,96.43
1470.00,96.42
1469.00,96.41
1468.00,96.39
1467.00,96.38
1466.00,96.37
1465.00,96.36
1464.00,96.34
1463.00,96.33
1462.00,96.32
1461.00,96.30
1460.00,96.28
1459.00,96.25
1458.00,96.20
1457.00,96.13
1456.00,96.05
1455.00,96.00
1454.00,95.94
1453.00,95.86
1452.00,95.76
1451.00,95.65
1450.00,95.53
1449.00,95.38
1448.00,95.19
1447.00,94.97
1446.00,94.73
1445.00,94.43
1444.00,94.04
1443.00,93.56
1442.00,92.98
1441.00,92.33
1440.00,91.66
1439.00,90.98
1438.00,90.21
1437.00,89.37
1436.00,88.67
1435.00,88.28
1434.00,88.13
1433.00,88.07
1432.00,88.02
1431.00,87.89
1430.00,87.56
1429.00,87.03
1428.00,86.44
1427.00,86.00
1426.00,85.86
1425.00,86.09
1424.00,86.69
1423.00,87.44
1422.00,88.13
1421.00,88.75
1420.00,89.40
1419.00,90.05
1418.00,90.60
1417.00,91.02
1416.00,91.38
1415.00,91.75
1414.00,92.14
1413.00,92.55
1412.00,92.97
1411.00,93.40
1410.00,93.79
1409.00,94.13
1408.00,94.43
1407.00,94.67
1406.00,94.88
1405.00,95.04
1404.00,95.17
1403.00,95.26
1402.00,95.31
1401.00,95.35
1400.00,95.38
1399.00,95.40
1398.00,95.41
1397.00,95.40
1396.00,95.39
1395.00,95.35
1394.00,95.29
1393.00,95.23
1392.00,95.16
1391.00,95.08
1390.00,95.00
1389.00,94.91
1388.00,94.81
1387.00,94.70
1386.00,94.60
1385.00,94.52
1384.00,94.45
1383.00,94.39
1382.00,94.33
1381.00,94.28
1380.00,94.24
1379.00,94.22
1378.00,94.20
1377.00,94.18
1376.00,94.17
1375.00,94.17
1374.00,94.16
1373.00,94.15
1372.00,94.14
1371.00,94.13
1370.00,94.10
1369.00,94.07
1368.00,94.02
1367.00,93.97
1366.00,93.91
1365.00,93.85
1364.00,93.76
1363.00,93.67
1362.00,93.56
1361.00,93.46
1360.00,93.36
1359.00,93.26
1358.00,93.17
1357.00,93.08
1356.00,93.00
1355.00,92.93
1354.00,92.88
1353.00,92.86
1352.00,92.86
1351.00,92.88
1350.00,92.91
1349.00,92.93
1348.00,92.93
1347.00,92.90
1346.00,92.82
1345.00,92.69
1344.00,92.50
1343.00,92.25
1342.00,91.94
1341.00,91.55
1340.00,91.09
1339.00,90.61
1338.00,90.15
1337.00,89.76
1336.00,89.44
1335.00,89.20
1334.00,89.03
1333.00,88.90
1332.00,88.82
1331.00,88.76
1330.00,88.72
1329.00,88.71
1328.00,88.71
1327.00,88.74
1326.00,88.79
1325.00,88.87
1324.00,88.98
1323.00,89.11
1322.00,89.27
1321.00,89.45
1320.00,89.64
1319.00,89.83
1318.00,90.03
1317.00,90.21
1316.00,90.39
1315.00,90.55
1314.00,90.70
1313.00,90.84
1312.00,90.97
1311.00,91.09
1310.00,91.21
1309.00,91.31
1308.00,91.41
1307.00,91.51
1306.00,91.61
1305.00,91.70
1304.00,91.79
1303.00,91.88
1302.00,91.97
1301.00,92.07
1300.00,92.17
1299.00,92.28
1298.00,92.39
1297.00,92.49
1296.00,92.60
1295.00,92.70
1294.00,92.80
1293.00,92.89
1292.00,92.97
1291.00,93.04
1290.00,93.10
1289.00,93.13
1288.00,93.14
1287.00,93.12
1286.00,93.09
1285.00,93.03
1284.00,92.96
1283.00,92.87
1282.00,92.77
1281.00,92.65
1280.00,92.52
1279.00,92.37
1278.00,92.21
1277.00,92.04
1276.00,91.84
1275.00,91.63
1274.00,91.40
1273.00,91.13
1272.00,90.84
1271.00,90.52
1270.00,90.18
1269.00,89.81
1268.00,89.41
1267.00,89.00
1266.00,88.58
1265.00,88.16
1264.00,87.74
1263.00,87.32
1262.00,86.91
1261.00,86.49
1260.00,86.07
1259.00,85.64
1258.00,85.22
1257.00,84.82
1256.00,84.47
1255.00,84.24
1254.00,84.13
1253.00,84.15
1252.00,84.25
1251.00,84.39
1250.00,84.53
1249.00,84.64
1248.00,84.74
1247.00,84.82
1246.00,84.89
1245.00,84.96
1244.00,85.03
1243.00,85.11
1242.00,85.20
1241.00,85.30
1240.00,85.41
1239.00,85.54
1238.00,85.69
1237.00,85.86
1236.00,86.04
1235.00,86.22
1234.00,86.41
1233.00,86.59
1232.00,86.77
1231.00,86.98
1230.00,87.25
1229.00,87.57
1228.00,87.98
1227.00,88.46
1226.00,89.00
1225.00,89.55
1224.00,90.08
1223.00,90.56
1222.00,90.97
1221.00,91.29
1220.00,91.53
1219.00,91.69
1218.00,91.80
1217.00,91.86
1216.00,91.89
1215.00,91.89
1214.00,91.87
1213.00,91.85
1212.00,91.83
1211.00,91.81
1210.00,91.77
1209.00,91.73
1208.00,91.68
1207.00,91.63
1206.00,91.57
1205.00,91.51
1204.00,91.46
1203.00,91.41
1202.00,91.37
1201.00,91.33
1200.00,91.31
1199.00,91.29
1198.00,91.29
1197.00,91.31
1196.00,91.34
1195.00,91.40
1194.00,91.48
1193.00,91.58
1192.00,91.69
1191.00,91.81
1190.00,91.95
1189.00,92.10
1188.00,92.25
1187.00,92.41
1186.00,92.57
1185.00,92.73
1184.00,92.88
1183.00,93.01
1182.00,93.13
1181.00,93.24
1180.00,93.34
1179.00,93.43
1178.00,93.51
1177.00,93.58
1176.00,93.64
1175.00,93.69
1174.00,93.73
1173.00,93.76
1172.00,93.79
1171.00,93.82
1170.00,93.84
1169.00,93.88
1168.00,93.92
1167.00,93.98
1166.00,94.05
1165.00,94.15
1164.00,94.25
1163.00,94.37
1162.00,94.51
1161.00,94.65
1160.00,94.77
1159.00,94.89
1158.00,94.98
1157.00,95.05
1156.00,95.12
1155.00,95.17
1154.00,95.22
1153.00,95.26
1152.00,95.29
1151.00,95.32
1150.00,95.33
1149.00,95.35
1148.00,95.35
1147.00,95.35
1146.00,95.35
1145.00,95.35
1144.00,95.34
1143.00,95.32
1142.00,95.30
1141.00,95.28
1140.00,95.25
1139.00,95.22
1138.00,95.18
1137.00,95.12
1136.00,95.07
1135.00,95.00
1134.00,94.92
1133.00,94.83
1132.00,94.73
1131.00,94.62
1130.00,94.50
1129.00,94.37
1128.00,94.24
1127.00,94.10
1126.00,93.95
1125.00,93.80
1124.00,93.66
1123.00,93.52
1122.00,93.39
1121.00,93.27
1120.00,93.15
1119.00,93.05
1118.00,92.94
1117.00,92.84
1116.00,92.74
1115.00,92.64
1114.00,92.53
1113.00,92.41
1112.00,92.27
1111.00,92.11
1110.00,91.92
1109.00,91.71
1108.00,91.49
1107.00,91.27
1106.00,91.05
1105.00,90.85
1104.00,90.66
1103.00,90.51
1102.00,90.37
1101.00,90.27
1100.00,90.17
1099.00,90.10
1098.00,90.04
1097.00,89.98
1096.00,89.93
1095.00,89.90
1094.00,89.87
1093.00,89.86
1092.00,89.87
1091.00,89.89
1090.00,89.93
1089.00,89.99
1088.00,90.06
1087.00,90.15
1086.00,90.24
1085.00,90.33
1084.00,90.42
1083.00,90.51
1082.00,90.60
1081.00,90.69
1080.00,90.77
1079.00,90.85
1078.00,90.92
1077.00,90.99
1076.00,91.06
1075.00,91.12
1074.00,91.18
1073.00,91.24
1072.00,91.28
1071.00,91.32
1070.00,91.35
1069.00,91.38
1068.00,91.41
1067.00,91.45
1066.00,91.48
1065.00,91.51
1064.00,91.53
1063.00,91.56
1062.00,91.59
1061.00,91.62
1060.00,91.65
1059.00,91.68
1058.00,91.72
1057.00,91.76
1056.00,91.79
1055.00,91.81
1054.00,91.83
1053.00,91.84
1052.00,91.86
1051.00,91.88
1050.00,91.90
1049.00,91.93
1048.00,91.96
1047.00,91.99
1046.00,92.01
1045.00,92.02
1044.00,92.02
1043.00,92.03
1042.00,92.04
1041.00,92.04
1040.00,92.04
1039.00,92.04
1038.00,92.04
1037.00,92.03
1036.00,92.03
1035.00,92.02
1034.00,92.01
1033.00,92.00
1032.00,91.98
1031.00,91.97
1030.00,91.96
1029.00,91.95
1028.00,91.93
1027.00,91.92
1026.00,91.91
1025.00,91.89
1024.00,91.88
1023.00,91.87
1022.00,91.86
1021.00,91.86
1020.00,91.85
1019.00,91.84
1018.00,91.83
1017.00,91.82
1016.00,91.82
1015.00,91.82
1014.00,91.82
1013.00,91.82
1012.00,91.81
1011.00,91.79
1010.00,91.77
1009.00,91.74
1008.00,91.72
1007.00,91.70
1006.00,91.67
1005.00,91.64
1004.00,91.61
1003.00,91.57
1002.00,91.54
1001.00,91.49
1000.00,91.45
999.00,91.39
998.00,91.34
997.00,91.28
996.00,91.21
995.00,91.14
994.00,91.06
993.00,90.97
992.00,90.88
991.00,90.78
990.00,90.68
989.00,90.55
988.00,90.42
987.00,90.27
986.00,90.11
985.00,89.94
984.00,89.76
983.00,89.56
982.00,89.35
981.00,89.12
980.00,88.87
979.00,88.62
978.00,88.35
977.00,88.07
976.00,87.79
975.00,87.51
974.00,87.23
973.00,86.97
972.00,86.71
971.00,86.47
970.00,86.24
969.00,86.03
968.00,85.84
967.00,85.67
966.00,85.53
965.00,85.41
964.00,85.29
963.00,85.19
962.00,85.09
961.00,85.01
960.00,84.94
959.00,84.90
958.00,84.90
957.00,84.94
956.00,85.02
955.00,85.14
954.00,85.32
953.00,85.53
952.00,85.76
951.00,86.00
950.00,86.24
949.00,86.46
948.00,86.68
947.00,86.89
946.00,87.07
945.00,87.23
944.00,87.38
943.00,87.53
942.00,87.68
941.00,87.82
940.00,87.95
939.00,88.07
938.00,88.18
937.00,88.27
936.00,88.35
935.00,88.42
934.00,88.49
933.00,88.55
932.00,88.60
931.00,88.64
930.00,88.69
929.00,88.73
928.00,88.76
927.00,88.79
926.00,88.83
925.00,88.86
924.00,88.89
923.00,88.94
922.00,88.99
921.00,89.04
920.00,89.11
919.00,89.18
918.00,89.27
917.00,89.36
916.00,89.47
915.00,89.59
914.00,89.72
913.00,89.85
912.00,89.98
911.00,90.11
910.00,90.24
909.00,90.37
908.00,90.50
907.00,90.62
906.00,90.72
905.00,90.81
904.00,90.88
903.00,90.94
902.00,91.00
901.00,91.05
900.00,91.10
899.00,91.14
898.00,91.18
897.00,91.22
896.00,91.26
895.00,91.30
894.00,91.33
893.00,91.36
892.00,91.38
891.00,91.40
890.00,91.43
889.00,91.45
888.00,91.46
887.00,91.48
886.00,91.49
885.00,91.50
884.00,91.50
883.00,91.51
882.00,91.52
881.00,91.52
880.00,91.52
879.00,91.52
878.00,91.52
877.00,91.52
876.00,91.52
875.00,91.52
874.00,91.54
873.00,91.56
872.00,91.58
871.00,91.60
870.00,91.62
869.00,91.65
868.00,91.66
867.00,91.67
866.00,91.67
865.00,91.67
864.00,91.68
863.00,91.69
862.00,91.70
861.00,91.70
860.00,91.70
859.00,91.70
858.00,91.69
857.00,91.69
856.00,91.69
855.00,91.68
854.00,91.68
853.00,91.68
852.00,91.67
851.00,91.66
850.00,91.65
849.00,91.64
848.00,91.63
847.00,91.61
846.00,91.59
845.00,91.56
844.00,91.52
843.00,91.48
842.00,91.44
841.00,91.40
840.00,91.36
839.00,91.32
838.00,91.28
837.00,91.23
836.00,91.19
835.00,91.17
834.00,91.18
833.00,91.20
832.00,91.25
831.00,91.33
830.00,91.43
829.00,91.58
828.00,91.77
827.00,91.99
826.00,92.22
825.00,92.45
824.00,92.66
823.00,92.86
822.00,93.06
821.00,93.25
820.00,93.41
819.00,93.55
818.00,93.67
817.00,93.77
816.00,93.86
815.00,93.93
814.00,94.00
813.00,94.06
812.00,94.10
811.00,94.14
810.00,94.18
809.00,94.21
808.00,94.24
807.00,94.26
806.00,94.28
805.00,94.30
804.00,94.32
803.00,94.34
802.00,94.36
801.00,94.36
800.00,94.36
799.00,94.36
798.00,94.37
797.00,94.39
796.00,94.41
795.00,94.43
794.00,94.45
793.00,94.47
792.00,94.49
791.00,94.50
790.00,94.50
789.00,94.50
788.00,94.50
787.00,94.50
786.00,94.50
785.00,94.50
784.00,94.50
783.00,94.50
782.00,94.50
781.00,94.49
780.00,94.47
779.00,94.46
778.00,94.45
777.00,94.43
776.00,94.40
775.00,94.38
774.00,94.36
773.00,94.35
772.00,94.33
771.00,94.30
770.00,94.25
769.00,94.21
768.00,94.17
767.00,94.16
766.00,94.14
765.00,94.13
764.00,94.10
763.00,94.08
762.00,94.06
761.00,94.05
760.00,94.05
759.00,94.06
758.00,94.06
757.00,94.05
756.00,94.05
755.00,94.04
754.00,94.04
753.00,94.03
752.00,94.03
751.00,94.03
750.00,94.03
749.00,94.03
748.00,94.02
747.00,94.00
746.00,93.98
745.00,93.95
744.00,93.93
743.00,93.91
742.00,93.89
741.00,93.85
740.00,93.80
739.00,93.74
738.00,93.70
737.00,93.64
736.00,93.58
735.00,93.50
734.00,93.41
733.00,93.30
732.00,93.20
731.00,93.10
730.00,93.00
729.00,92.89
728.00,92.76
727.00,92.62
726.00,92.48
725.00,92.35
724.00,92.22
723.00,92.11
722.00,91.99
721.00,91.86
720.00,91.70
719.00,91.53
718.00,91.34
717.00,91.12
716.00,90.88
715.00,90.63
714.00,90.35
713.00,90.06
712.00,89.74
711.00,89.42
710.00,89.10
709.00,88.78
708.00,88.45
707.00,88.11
706.00,87.76
705.00,87.40
704.00,87.03
703.00,86.68
702.00,86.35
701.00,86.04
700.00,85.74
699.00,85.47
698.00,85.23
697.00,85.02
696.00,84.83
695.00,84.66
694.00,84.52
693.00,84.38
692.00,84.26
691.00,84.16
690.00,84.08
689.00,84.02
688.00,83.96
687.00,83.91
686.00,83.88
685.00,83.85
684.00,83.83
683.00,83.83
682.00,83.84
681.00,83.87
680.00,83.91
679.00,83.96
678.00,84.04
677.00,84.14
676.00,84.26
675.00,84.40
674.00,84.57
673.00,84.76
672.00,84.96
671.00,85.16
670.00,85.38
669.00,85.69
668.00,86.04
667.00,86.28
666.00,86.42
665.00,86.53
664.00,86.61
663.00,86.64
662.00,86.62
661.00,86.53
660.00,86.36
659.00,86.12
658.00,85.85
657.00,85.55
656.00,85.20
655.00,84.82
654.00,84.40
653.00,83.90
652.00,83.37
651.00,82.88
650.00,82.41
