Created as New Dataset,GF-PVC043 By Administrator Date Tuesday, July 26 2022
cm-1,%T
4000.00,99.69
3999.00,99.69
3998.00,99.69
3997.00,99.70
3996.00,99.70
3995.00,99.70
3994.00,99.70
3993.00,99.68
3992.00,99.68
3991.00,99.69
3990.00,99.69
3989.00,99.69
3988.00,99.69
3987.00,99.69
3986.00,99.69
3985.00,99.69
3984.00,99.69
3983.00,99.69
3982.00,99.68
3981.00,99.68
3980.00,99.68
3979.00,99.68
3978.00,99.69
3977.00,99.69
3976.00,99.69
3975.00,99.70
3974.00,99.70
3973.00,99.70
3972.00,99.70
3971.00,99.70
3970.00,99.70
3969.00,99.70
3968.00,99.70
3967.00,99.70
3966.00,99.70
3965.00,99.70
3964.00,99.70
3963.00,99.70
3962.00,99.70
3961.00,99.70
3960.00,99.70
3959.00,99.70
3958.00,99.70
3957.00,99.70
3956.00,99.70
3955.00,99.70
3954.00,99.70
3953.00,99.70
3952.00,99.70
3951.00,99.70
3950.00,99.70
3949.00,99.71
3948.00,99.71
3947.00,99.71
3946.00,99.70
3945.00,99.70
3944.00,99.69
3943.00,99.69
3942.00,99.70
3941.00,99.70
3940.00,99.71
3939.00,99.71
3938.00,99.71
3937.00,99.71
3936.00,99.71
3935.00,99.71
3934.00,99.71
3933.00,99.70
3932.00,99.70
3931.00,99.70
3930.00,99.70
3929.00,99.70
3928.00,99.70
3927.00,99.70
3926.00,99.70
3925.00,99.70
3924.00,99.70
3923.00,99.70
3922.00,99.70
3921.00,99.70
3920.00,99.71
3919.00,99.71
3918.00,99.71
3917.00,99.71
3916.00,99.70
3915.00,99.70
3914.00,99.70
3913.00,99.70
3912.00,99.70
3911.00,99.71
3910.00,99.71
3909.00,99.71
3908.00,99.71
3907.00,99.70
3906.00,99.71
3905.00,99.71
3904.00,99.72
3903.00,99.72
3902.00,99.71
3901.00,99.70
3900.00,99.70
3899.00,99.70
3898.00,99.70
3897.00,99.70
3896.00,99.70
3895.00,99.70
3894.00,99.70
3893.00,99.70
3892.00,99.71
3891.00,99.71
3890.00,99.72
3889.00,99.72
3888.00,99.71
3887.00,99.71
3886.00,99.71
3885.00,99.72
3884.00,99.71
3883.00,99.70
3882.00,99.69
3881.00,99.69
3880.00,99.70
3879.00,99.71
3878.00,99.71
3877.00,99.71
3876.00,99.70
3875.00,99.71
3874.00,99.71
3873.00,99.72
3872.00,99.71
3871.00,99.70
3870.00,99.71
3869.00,99.72
3868.00,99.72
3867.00,99.71
3866.00,99.71
3865.00,99.71
3864.00,99.71
3863.00,99.71
3862.00,99.71
3861.00,99.71
3860.00,99.71
3859.00,99.72
3858.00,99.73
3857.00,99.73
3856.00,99.73
3855.00,99.72
3854.00,99.72
3853.00,99.72
3852.00,99.72
3851.00,99.71
3850.00,99.71
3849.00,99.70
3848.00,99.71
3847.00,99.71
3846.00,99.70
3845.00,99.70
3844.00,99.70
3843.00,99.71
3842.00,99.71
3841.00,99.71
3840.00,99.72
3839.00,99.72
3838.00,99.72
3837.00,99.72
3836.00,99.71
3835.00,99.71
3834.00,99.71
3833.00,99.70
3832.00,99.70
3831.00,99.70
3830.00,99.70
3829.00,99.70
3828.00,99.70
3827.00,99.71
3826.00,99.72
3825.00,99.73
3824.00,99.73
3823.00,99.72
3822.00,99.73
3821.00,99.73
3820.00,99.74
3819.00,99.73
3818.00,99.71
3817.00,99.70
3816.00,99.71
3815.00,99.72
3814.00,99.71
3813.00,99.71
3812.00,99.71
3811.00,99.71
3810.00,99.72
3809.00,99.72
3808.00,99.72
3807.00,99.73
3806.00,99.73
3805.00,99.74
3804.00,99.73
3803.00,99.73
3802.00,99.73
3801.00,99.74
3800.00,99.73
3799.00,99.72
3798.00,99.71
3797.00,99.71
3796.00,99.71
3795.00,99.71
3794.00,99.71
3793.00,99.70
3792.00,99.70
3791.00,99.70
3790.00,99.71
3789.00,99.71
3788.00,99.72
3787.00,99.72
3786.00,99.72
3785.00,99.72
3784.00,99.72
3783.00,99.72
3782.00,99.71
3781.00,99.71
3780.00,99.71
3779.00,99.71
3778.00,99.71
3777.00,99.70
3776.00,99.70
3775.00,99.71
3774.00,99.71
3773.00,99.72
3772.00,99.72
3771.00,99.72
3770.00,99.72
3769.00,99.72
3768.00,99.72
3767.00,99.71
3766.00,99.71
3765.00,99.71
3764.00,99.71
3763.00,99.71
3762.00,99.71
3761.00,99.71
3760.00,99.72
3759.00,99.72
3758.00,99.72
3757.00,99.73
3756.00,99.73
3755.00,99.74
3754.00,99.75
3753.00,99.77
3752.00,99.77
3751.00,99.78
3750.00,99.78
3749.00,99.78
3748.00,99.78
3747.00,99.77
3746.00,99.76
3745.00,99.76
3744.00,99.76
3743.00,99.76
3742.00,99.75
3741.00,99.74
3740.00,99.74
3739.00,99.74
3738.00,99.74
3737.00,99.74
3736.00,99.74
3735.00,99.74
3734.00,99.74
3733.00,99.74
3732.00,99.74
3731.00,99.74
3730.00,99.74
3729.00,99.74
3728.00,99.74
3727.00,99.74
3726.00,99.75
3725.00,99.74
3724.00,99.73
3723.00,99.73
3722.00,99.72
3721.00,99.72
3720.00,99.73
3719.00,99.73
3718.00,99.74
3717.00,99.75
3716.00,99.75
3715.00,99.75
3714.00,99.75
3713.00,99.75
3712.00,99.75
3711.00,99.74
3710.00,99.74
3709.00,99.73
3708.00,99.72
3707.00,99.72
3706.00,99.71
3705.00,99.71
3704.00,99.70
3703.00,99.70
3702.00,99.69
3701.00,99.70
3700.00,99.70
3699.00,99.69
3698.00,99.69
3697.00,99.69
3696.00,99.69
3695.00,99.69
3694.00,99.68
3693.00,99.68
3692.00,99.68
3691.00,99.67
3690.00,99.67
3689.00,99.67
3688.00,99.66
3687.00,99.66
3686.00,99.65
3685.00,99.65
3684.00,99.65
3683.00,99.65
3682.00,99.64
3681.00,99.64
3680.00,99.64
3679.00,99.64
3678.00,99.65
3677.00,99.65
3676.00,99.65
3675.00,99.65
3674.00,99.65
3673.00,99.63
3672.00,99.62
3671.00,99.61
3670.00,99.61
3669.00,99.62
3668.00,99.61
3667.00,99.61
3666.00,99.60
3665.00,99.61
3664.00,99.61
3663.00,99.62
3662.00,99.62
3661.00,99.62
3660.00,99.62
3659.00,99.62
3658.00,99.62
3657.00,99.63
3656.00,99.63
3655.00,99.63
3654.00,99.63
3653.00,99.62
3652.00,99.62
3651.00,99.62
3650.00,99.63
3649.00,99.63
3648.00,99.62
3647.00,99.61
3646.00,99.61
3645.00,99.61
3644.00,99.61
3643.00,99.61
3642.00,99.61
3641.00,99.60
3640.00,99.60
3639.00,99.60
3638.00,99.60
3637.00,99.60
3636.00,99.59
3635.00,99.59
3634.00,99.60
3633.00,99.60
3632.00,99.60
3631.00,99.60
3630.00,99.59
3629.00,99.59
3628.00,99.59
3627.00,99.58
3626.00,99.56
3625.00,99.55
3624.00,99.55
3623.00,99.54
3622.00,99.53
3621.00,99.53
3620.00,99.52
3619.00,99.52
3618.00,99.52
3617.00,99.52
3616.00,99.52
3615.00,99.52
3614.00,99.51
3613.00,99.51
3612.00,99.51
3611.00,99.50
3610.00,99.50
3609.00,99.49
3608.00,99.49
3607.00,99.48
3606.00,99.48
3605.00,99.47
3604.00,99.47
3603.00,99.47
3602.00,99.47
3601.00,99.47
3600.00,99.46
3599.00,99.46
3598.00,99.45
3597.00,99.45
3596.00,99.44
3595.00,99.44
3594.00,99.44
3593.00,99.45
3592.00,99.45
3591.00,99.45
3590.00,99.45
3589.00,99.44
3588.00,99.44
3587.00,99.43
3586.00,99.43
3585.00,99.43
3584.00,99.43
3583.00,99.43
3582.00,99.43
3581.00,99.43
3580.00,99.43
3579.00,99.43
3578.00,99.44
3577.00,99.44
3576.00,99.44
3575.00,99.44
3574.00,99.44
3573.00,99.44
3572.00,99.43
3571.00,99.43
3570.00,99.42
3569.00,99.42
3568.00,99.42
3567.00,99.42
3566.00,99.42
3565.00,99.42
3564.00,99.42
3563.00,99.41
3562.00,99.41
3561.00,99.41
3560.00,99.41
3559.00,99.40
3558.00,99.40
3557.00,99.40
3556.00,99.39
3555.00,99.39
3554.00,99.38
3553.00,99.38
3552.00,99.38
3551.00,99.38
3550.00,99.38
3549.00,99.38
3548.00,99.37
3547.00,99.37
3546.00,99.37
3545.00,99.36
3544.00,99.36
3543.00,99.36
3542.00,99.36
3541.00,99.35
3540.00,99.35
3539.00,99.35
3538.00,99.35
3537.00,99.35
3536.00,99.34
3535.00,99.34
3534.00,99.34
3533.00,99.34
3532.00,99.33
3531.00,99.33
3530.00,99.33
3529.00,99.33
3528.00,99.33
3527.00,99.33
3526.00,99.32
3525.00,99.31
3524.00,99.30
3523.00,99.30
3522.00,99.30
3521.00,99.30
3520.00,99.30
3519.00,99.30
3518.00,99.29
3517.00,99.29
3516.00,99.28
3515.00,99.28
3514.00,99.28
3513.00,99.27
3512.00,99.27
3511.00,99.27
3510.00,99.27
3509.00,99.27
3508.00,99.27
3507.00,99.26
3506.00,99.26
3505.00,99.26
3504.00,99.25
3503.00,99.24
3502.00,99.24
3501.00,99.23
3500.00,99.23
3499.00,99.23
3498.00,99.23
3497.00,99.23
3496.00,99.23
3495.00,99.22
3494.00,99.22
3493.00,99.22
3492.00,99.22
3491.00,99.21
3490.00,99.21
3489.00,99.21
3488.00,99.20
3487.00,99.20
3486.00,99.20
3485.00,99.19
3484.00,99.19
3483.00,99.19
3482.00,99.18
3481.00,99.18
3480.00,99.18
3479.00,99.17
3478.00,99.17
3477.00,99.17
3476.00,99.17
3475.00,99.17
3474.00,99.16
3473.00,99.16
3472.00,99.16
3471.00,99.15
3470.00,99.15
3469.00,99.15
3468.00,99.14
3467.00,99.14
3466.00,99.15
3465.00,99.15
3464.00,99.15
3463.00,99.14
3462.00,99.14
3461.00,99.13
3460.00,99.13
3459.00,99.13
3458.00,99.12
3457.00,99.12
3456.00,99.12
3455.00,99.12
3454.00,99.12
3453.00,99.12
3452.00,99.12
3451.00,99.12
3450.00,99.12
3449.00,99.12
3448.00,99.12
3447.00,99.13
3446.00,99.13
3445.00,99.12
3444.00,99.12
3443.00,99.12
3442.00,99.12
3441.00,99.12
3440.00,99.12
3439.00,99.12
3438.00,99.12
3437.00,99.12
3436.00,99.12
3435.00,99.12
3434.00,99.12
3433.00,99.12
3432.00,99.11
3431.00,99.11
3430.00,99.11
3429.00,99.11
3428.00,99.10
3427.00,99.10
3426.00,99.10
3425.00,99.10
3424.00,99.10
3423.00,99.11
3422.00,99.11
3421.00,99.11
3420.00,99.11
3419.00,99.11
3418.00,99.11
3417.00,99.11
3416.00,99.11
3415.00,99.10
3414.00,99.10
3413.00,99.11
3412.00,99.11
3411.00,99.11
3410.00,99.10
3409.00,99.10
3408.00,99.09
3407.00,99.09
3406.00,99.09
3405.00,99.09
3404.00,99.10
3403.00,99.10
3402.00,99.10
3401.00,99.10
3400.00,99.10
3399.00,99.10
3398.00,99.10
3397.00,99.10
3396.00,99.10
3395.00,99.10
3394.00,99.10
3393.00,99.10
3392.00,99.10
3391.00,99.10
3390.00,99.10
3389.00,99.10
3388.00,99.10
3387.00,99.10
3386.00,99.10
3385.00,99.09
3384.00,99.09
3383.00,99.09
3382.00,99.09
3381.00,99.09
3380.00,99.09
3379.00,99.09
3378.00,99.09
3377.00,99.09
3376.00,99.09
3375.00,99.09
3374.00,99.09
3373.00,99.09
3372.00,99.09
3371.00,99.09
3370.00,99.09
3369.00,99.09
3368.00,99.09
3367.00,99.09
3366.00,99.08
3365.00,99.08
3364.00,99.08
3363.00,99.08
3362.00,99.08
3361.00,99.08
3360.00,99.08
3359.00,99.08
3358.00,99.08
3357.00,99.08
3356.00,99.08
3355.00,99.08
3354.00,99.09
3353.00,99.09
3352.00,99.09
3351.00,99.09
3350.00,99.09
3349.00,99.09
3348.00,99.08
3347.00,99.08
3346.00,99.08
3345.00,99.08
3344.00,99.09
3343.00,99.09
3342.00,99.09
3341.00,99.09
3340.00,99.09
3339.00,99.09
3338.00,99.09
3337.00,99.09
3336.00,99.09
3335.00,99.09
3334.00,99.10
3333.00,99.10
3332.00,99.10
3331.00,99.11
3330.00,99.11
3329.00,99.10
3328.00,99.10
3327.00,99.10
3326.00,99.10
3325.00,99.10
3324.00,99.10
3323.00,99.10
3322.00,99.10
3321.00,99.11
3320.00,99.11
3319.00,99.11
3318.00,99.11
3317.00,99.11
3316.00,99.11
3315.00,99.11
3314.00,99.11
3313.00,99.12
3312.00,99.12
3311.00,99.12
3310.00,99.13
3309.00,99.13
3308.00,99.13
3307.00,99.12
3306.00,99.12
3305.00,99.12
3304.00,99.12
3303.00,99.12
3302.00,99.12
3301.00,99.13
3300.00,99.13
3299.00,99.14
3298.00,99.14
3297.00,99.14
3296.00,99.14
3295.00,99.14
3294.00,99.14
3293.00,99.14
3292.00,99.14
3291.00,99.14
3290.00,99.14
3289.00,99.14
3288.00,99.14
3287.00,99.15
3286.00,99.15
3285.00,99.15
3284.00,99.15
3283.00,99.15
3282.00,99.15
3281.00,99.15
3280.00,99.16
3279.00,99.16
3278.00,99.16
3277.00,99.17
3276.00,99.17
3275.00,99.17
3274.00,99.17
3273.00,99.17
3272.00,99.17
3271.00,99.17
3270.00,99.17
3269.00,99.17
3268.00,99.17
3267.00,99.17
3266.00,99.17
3265.00,99.17
3264.00,99.17
3263.00,99.18
3262.00,99.18
3261.00,99.18
3260.00,99.18
3259.00,99.18
3258.00,99.19
3257.00,99.19
3256.00,99.19
3255.00,99.19
3254.00,99.19
3253.00,99.19
3252.00,99.19
3251.00,99.19
3250.00,99.20
3249.00,99.20
3248.00,99.20
3247.00,99.20
3246.00,99.20
3245.00,99.21
3244.00,99.21
3243.00,99.21
3242.00,99.22
3241.00,99.22
3240.00,99.22
3239.00,99.22
3238.00,99.22
3237.00,99.22
3236.00,99.22
3235.00,99.22
3234.00,99.22
3233.00,99.22
3232.00,99.22
3231.00,99.23
3230.00,99.23
3229.00,99.22
3228.00,99.22
3227.00,99.22
3226.00,99.23
3225.00,99.23
3224.00,99.23
3223.00,99.23
3222.00,99.23
3221.00,99.23
3220.00,99.23
3219.00,99.23
3218.00,99.23
3217.00,99.24
3216.00,99.24
3215.00,99.24
3214.00,99.24
3213.00,99.24
3212.00,99.24
3211.00,99.25
3210.00,99.25
3209.00,99.25
3208.00,99.25
3207.00,99.26
3206.00,99.26
3205.00,99.26
3204.00,99.26
3203.00,99.26
3202.00,99.26
3201.00,99.26
3200.00,99.26
3199.00,99.26
3198.00,99.26
3197.00,99.27
3196.00,99.27
3195.00,99.27
3194.00,99.28
3193.00,99.28
3192.00,99.28
3191.00,99.28
3190.00,99.28
3189.00,99.29
3188.00,99.29
3187.00,99.30
3186.00,99.30
3185.00,99.30
3184.00,99.30
3183.00,99.30
3182.00,99.30
3181.00,99.31
3180.00,99.31
3179.00,99.31
3178.00,99.31
3177.00,99.31
3176.00,99.31
3175.00,99.31
3174.00,99.32
3173.00,99.32
3172.00,99.32
3171.00,99.32
3170.00,99.33
3169.00,99.33
3168.00,99.33
3167.00,99.33
3166.00,99.33
3165.00,99.33
3164.00,99.33
3163.00,99.34
3162.00,99.34
3161.00,99.34
3160.00,99.34
3159.00,99.34
3158.00,99.35
3157.00,99.35
3156.00,99.35
3155.00,99.36
3154.00,99.36
3153.00,99.36
3152.00,99.36
3151.00,99.36
3150.00,99.36
3149.00,99.36
3148.00,99.36
3147.00,99.36
3146.00,99.37
3145.00,99.37
3144.00,99.37
3143.00,99.37
3142.00,99.37
3141.00,99.37
3140.00,99.38
3139.00,99.38
3138.00,99.38
3137.00,99.38
3136.00,99.38
3135.00,99.38
3134.00,99.39
3133.00,99.39
3132.00,99.39
3131.00,99.39
3130.00,99.39
3129.00,99.39
3128.00,99.39
3127.00,99.39
3126.00,99.39
3125.00,99.39
3124.00,99.39
3123.00,99.39
3122.00,99.39
3121.00,99.40
3120.00,99.40
3119.00,99.40
3118.00,99.40
3117.00,99.39
3116.00,99.39
3115.00,99.39
3114.00,99.39
3113.00,99.39
3112.00,99.39
3111.00,99.39
3110.00,99.39
3109.00,99.39
3108.00,99.38
3107.00,99.38
3106.00,99.37
3105.00,99.37
3104.00,99.37
3103.00,99.37
3102.00,99.37
3101.00,99.37
3100.00,99.37
3099.00,99.37
3098.00,99.37
3097.00,99.37
3096.00,99.37
3095.00,99.37
3094.00,99.37
3093.00,99.36
3092.00,99.35
3091.00,99.34
3090.00,99.34
3089.00,99.33
3088.00,99.31
3087.00,99.30
3086.00,99.29
3085.00,99.28
3084.00,99.27
3083.00,99.27
3082.00,99.27
3081.00,99.27
3080.00,99.27
3079.00,99.27
3078.00,99.27
3077.00,99.27
3076.00,99.27
3075.00,99.27
3074.00,99.27
3073.00,99.26
3072.00,99.26
3071.00,99.26
3070.00,99.26
3069.00,99.26
3068.00,99.26
3067.00,99.25
3066.00,99.25
3065.00,99.24
3064.00,99.23
3063.00,99.23
3062.00,99.22
3061.00,99.23
3060.00,99.23
3059.00,99.23
3058.00,99.24
3057.00,99.25
3056.00,99.25
3055.00,99.26
3054.00,99.26
3053.00,99.27
3052.00,99.27
3051.00,99.27
3050.00,99.27
3049.00,99.27
3048.00,99.27
3047.00,99.26
3046.00,99.25
3045.00,99.24
3044.00,99.23
3043.00,99.22
3042.00,99.21
3041.00,99.20
3040.00,99.19
3039.00,99.17
3038.00,99.16
3037.00,99.13
3036.00,99.11
3035.00,99.09
3034.00,99.06
3033.00,99.04
3032.00,99.01
3031.00,98.99
3030.00,98.96
3029.00,98.94
3028.00,98.92
3027.00,98.91
3026.00,98.91
3025.00,98.91
3024.00,98.92
3023.00,98.93
3022.00,98.94
3021.00,98.95
3020.00,98.96
3019.00,98.96
3018.00,98.96
3017.00,98.96
3016.00,98.95
3015.00,98.94
3014.00,98.93
3013.00,98.92
3012.00,98.90
3011.00,98.89
3010.00,98.87
3009.00,98.85
3008.00,98.84
3007.00,98.82
3006.00,98.80
3005.00,98.78
3004.00,98.76
3003.00,98.73
3002.00,98.71
3001.00,98.69
3000.00,98.67
2999.00,98.65
2998.00,98.62
2997.00,98.59
2996.00,98.56
2995.00,98.51
2994.00,98.46
2993.00,98.39
2992.00,98.32
2991.00,98.23
2990.00,98.13
2989.00,98.02
2988.00,97.89
2987.00,97.75
2986.00,97.60
2985.00,97.44
2984.00,97.26
2983.00,97.08
2982.00,96.90
2981.00,96.71
2980.00,96.52
2979.00,96.34
2978.00,96.17
2977.00,96.01
2976.00,95.87
2975.00,95.75
2974.00,95.63
2973.00,95.54
2972.00,95.46
2971.00,95.39
2970.00,95.34
2969.00,95.30
2968.00,95.27
2967.00,95.27
2966.00,95.28
2965.00,95.30
2964.00,95.33
2963.00,95.36
2962.00,95.39
2961.00,95.43
2960.00,95.46
2959.00,95.49
2958.00,95.52
2957.00,95.55
2956.00,95.57
2955.00,95.59
2954.00,95.60
2953.00,95.61
2952.00,95.61
2951.00,95.61
2950.00,95.59
2949.00,95.57
2948.00,95.53
2947.00,95.48
2946.00,95.41
2945.00,95.33
2944.00,95.24
2943.00,95.13
2942.00,95.01
2941.00,94.89
2940.00,94.76
2939.00,94.62
2938.00,94.49
2937.00,94.35
2936.00,94.22
2935.00,94.09
2934.00,93.96
2933.00,93.83
2932.00,93.72
2931.00,93.60
2930.00,93.50
2929.00,93.40
2928.00,93.30
2927.00,93.20
2926.00,93.09
2925.00,92.98
2924.00,92.87
2923.00,92.75
2922.00,92.62
2921.00,92.48
2920.00,92.32
2919.00,92.16
2918.00,92.00
2917.00,91.84
2916.00,91.69
2915.00,91.57
2914.00,91.47
2913.00,91.42
2912.00,91.41
2911.00,91.44
2910.00,91.52
2909.00,91.65
2908.00,91.83
2907.00,92.05
2906.00,92.32
2905.00,92.63
2904.00,92.97
2903.00,93.34
2902.00,93.73
2901.00,94.12
2900.00,94.52
2899.00,94.91
2898.00,95.28
2897.00,95.62
2896.00,95.94
2895.00,96.23
2894.00,96.48
2893.00,96.70
2892.00,96.89
2891.00,97.05
2890.00,97.18
2889.00,97.30
2888.00,97.40
2887.00,97.49
2886.00,97.56
2885.00,97.63
2884.00,97.68
2883.00,97.73
2882.00,97.77
2881.00,97.79
2880.00,97.81
2879.00,97.81
2878.00,97.81
2877.00,97.81
2876.00,97.80
2875.00,97.78
2874.00,97.77
2873.00,97.76
2872.00,97.75
2871.00,97.75
2870.00,97.75
2869.00,97.76
2868.00,97.76
2867.00,97.76
2866.00,97.76
2865.00,97.75
2864.00,97.73
2863.00,97.69
2862.00,97.65
2861.00,97.60
2860.00,97.54
2859.00,97.48
2858.00,97.42
2857.00,97.36
2856.00,97.30
2855.00,97.25
2854.00,97.20
2853.00,97.16
2852.00,97.13
2851.00,97.12
2850.00,97.12
2849.00,97.15
2848.00,97.19
2847.00,97.24
2846.00,97.30
2845.00,97.37
2844.00,97.44
2843.00,97.53
2842.00,97.62
2841.00,97.72
2840.00,97.82
2839.00,97.92
2838.00,98.02
2837.00,98.13
2836.00,98.23
2835.00,98.32
2834.00,98.40
2833.00,98.48
2832.00,98.54
2831.00,98.60
2830.00,98.65
2829.00,98.68
2828.00,98.71
2827.00,98.73
2826.00,98.73
2825.00,98.73
2824.00,98.71
2823.00,98.70
2822.00,98.68
2821.00,98.65
2820.00,98.63
2819.00,98.62
2818.00,98.61
2817.00,98.61
2816.00,98.63
2815.00,98.66
2814.00,98.70
2813.00,98.75
2812.00,98.80
2811.00,98.86
2810.00,98.92
2809.00,98.98
2808.00,99.02
2807.00,99.07
2806.00,99.11
2805.00,99.15
2804.00,99.18
2803.00,99.20
2802.00,99.23
2801.00,99.24
2800.00,99.26
2799.00,99.27
2798.00,99.29
2797.00,99.30
2796.00,99.31
2795.00,99.32
2794.00,99.33
2793.00,99.34
2792.00,99.35
2791.00,99.36
2790.00,99.37
2789.00,99.38
2788.00,99.39
2787.00,99.39
2786.00,99.40
2785.00,99.41
2784.00,99.41
2783.00,99.42
2782.00,99.43
2781.00,99.43
2780.00,99.44
2779.00,99.45
2778.00,99.45
2777.00,99.46
2776.00,99.46
2775.00,99.47
2774.00,99.47
2773.00,99.47
2772.00,99.47
2771.00,99.47
2770.00,99.47
2769.00,99.48
2768.00,99.48
2767.00,99.48
2766.00,99.48
2765.00,99.48
2764.00,99.48
2763.00,99.47
2762.00,99.47
2761.00,99.47
2760.00,99.47
2759.00,99.46
2758.00,99.46
2757.00,99.46
2756.00,99.46
2755.00,99.46
2754.00,99.45
2753.00,99.45
2752.00,99.45
2751.00,99.45
2750.00,99.45
2749.00,99.45
2748.00,99.44
2747.00,99.44
2746.00,99.44
2745.00,99.43
2744.00,99.43
2743.00,99.43
2742.00,99.44
2741.00,99.44
2740.00,99.45
2739.00,99.45
2738.00,99.45
2737.00,99.45
2736.00,99.45
2735.00,99.45
2734.00,99.46
2733.00,99.46
2732.00,99.47
2731.00,99.47
2730.00,99.47
2729.00,99.47
2728.00,99.48
2727.00,99.48
2726.00,99.49
2725.00,99.50
2724.00,99.50
2723.00,99.51
2722.00,99.51
2721.00,99.52
2720.00,99.52
2719.00,99.52
2718.00,99.52
2717.00,99.52
2716.00,99.52
2715.00,99.53
2714.00,99.53
2713.00,99.54
2712.00,99.54
2711.00,99.54
2710.00,99.55
2709.00,99.55
2708.00,99.54
2707.00,99.54
2706.00,99.54
2705.00,99.55
2704.00,99.55
2703.00,99.55
2702.00,99.55
2701.00,99.55
2700.00,99.55
2699.00,99.55
2698.00,99.55
2697.00,99.55
2696.00,99.55
2695.00,99.56
2694.00,99.56
2693.00,99.56
2692.00,99.56
2691.00,99.56
2690.00,99.56
2689.00,99.56
2688.00,99.56
2687.00,99.56
2686.00,99.56
2685.00,99.56
2684.00,99.56
2683.00,99.56
2682.00,99.56
2681.00,99.56
2680.00,99.56
2679.00,99.56
2678.00,99.56
2677.00,99.56
2676.00,99.57
2675.00,99.57
2674.00,99.57
2673.00,99.57
2672.00,99.57
2671.00,99.57
2670.00,99.57
2669.00,99.57
2668.00,99.58
2667.00,99.58
2666.00,99.57
2665.00,99.57
2664.00,99.56
2663.00,99.56
2662.00,99.55
2661.00,99.55
2660.00,99.54
2659.00,99.54
2658.00,99.53
2657.00,99.53
2656.00,99.53
2655.00,99.53
2654.00,99.53
2653.00,99.53
2652.00,99.52
2651.00,99.52
2650.00,99.52
2649.00,99.52
2648.00,99.52
2647.00,99.52
2646.00,99.52
2645.00,99.52
2644.00,99.52
2643.00,99.52
2642.00,99.52
2641.00,99.51
2640.00,99.51
2639.00,99.51
2638.00,99.50
2637.00,99.50
2636.00,99.50
2635.00,99.50
2634.00,99.50
2633.00,99.50
2632.00,99.50
2631.00,99.50
2630.00,99.50
2629.00,99.50
2628.00,99.50
2627.00,99.50
2626.00,99.50
2625.00,99.50
2624.00,99.50
2623.00,99.50
2622.00,99.50
2621.00,99.50
2620.00,99.50
2619.00,99.50
2618.00,99.50
2617.00,99.50
2616.00,99.50
2615.00,99.50
2614.00,99.50
2613.00,99.50
2612.00,99.50
2611.00,99.50
2610.00,99.51
2609.00,99.51
2608.00,99.51
2607.00,99.51
2606.00,99.51
2605.00,99.51
2604.00,99.51
2603.00,99.51
2602.00,99.51
2601.00,99.51
2600.00,99.51
2599.00,99.51
2598.00,99.51
2597.00,99.52
2596.00,99.52
2595.00,99.52
2594.00,99.52
2593.00,99.52
2592.00,99.52
2591.00,99.52
2590.00,99.52
2589.00,99.52
2588.00,99.52
2587.00,99.52
2586.00,99.52
2585.00,99.52
2584.00,99.53
2583.00,99.53
2582.00,99.53
2581.00,99.53
2580.00,99.52
2579.00,99.52
2578.00,99.52
2577.00,99.51
2576.00,99.51
2575.00,99.52
2574.00,99.52
2573.00,99.52
2572.00,99.52
2571.00,99.52
2570.00,99.52
2569.00,99.52
2568.00,99.52
2567.00,99.52
2566.00,99.51
2565.00,99.51
2564.00,99.50
2563.00,99.51
2562.00,99.51
2561.00,99.51
2560.00,99.51
2559.00,99.51
2558.00,99.51
2557.00,99.51
2556.00,99.51
2555.00,99.51
2554.00,99.52
2553.00,99.52
2552.00,99.52
2551.00,99.52
2550.00,99.52
2549.00,99.52
2548.00,99.52
2547.00,99.52
2546.00,99.52
2545.00,99.52
2544.00,99.53
2543.00,99.53
2542.00,99.53
2541.00,99.54
2540.00,99.54
2539.00,99.55
2538.00,99.55
2537.00,99.55
2536.00,99.55
2535.00,99.55
2534.00,99.55
2533.00,99.55
2532.00,99.55
2531.00,99.55
2530.00,99.56
2529.00,99.56
2528.00,99.56
2527.00,99.56
2526.00,99.56
2525.00,99.56
2524.00,99.56
2523.00,99.56
2522.00,99.56
2521.00,99.56
2520.00,99.56
2519.00,99.56
2518.00,99.57
2517.00,99.57
2516.00,99.58
2515.00,99.58
2514.00,99.59
2513.00,99.59
2512.00,99.59
2511.00,99.59
2510.00,99.59
2509.00,99.59
2508.00,99.59
2507.00,99.59
2506.00,99.60
2505.00,99.60
2504.00,99.60
2503.00,99.60
2502.00,99.59
2501.00,99.59
2500.00,99.59
2499.00,99.59
2498.00,99.60
2497.00,99.60
2496.00,99.61
2495.00,99.61
2494.00,99.61
2493.00,99.61
2492.00,99.62
2491.00,99.62
2490.00,99.63
2489.00,99.62
2488.00,99.61
2487.00,99.60
2486.00,99.60
2485.00,99.60
2484.00,99.61
2483.00,99.62
2482.00,99.62
2481.00,99.62
2480.00,99.62
2479.00,99.62
2478.00,99.62
2477.00,99.63
2476.00,99.63
2475.00,99.63
2474.00,99.63
2473.00,99.63
2472.00,99.63
2471.00,99.63
2470.00,99.63
2469.00,99.63
2468.00,99.63
2467.00,99.63
2466.00,99.63
2465.00,99.63
2464.00,99.63
2463.00,99.63
2462.00,99.63
2461.00,99.63
2460.00,99.63
2459.00,99.63
2458.00,99.63
2457.00,99.63
2456.00,99.63
2455.00,99.63
2454.00,99.63
2453.00,99.63
2452.00,99.62
2451.00,99.62
2450.00,99.62
2449.00,99.63
2448.00,99.63
2447.00,99.63
2446.00,99.64
2445.00,99.64
2444.00,99.63
2443.00,99.63
2442.00,99.63
2441.00,99.63
2440.00,99.63
2439.00,99.63
2438.00,99.63
2437.00,99.63
2436.00,99.63
2435.00,99.64
2434.00,99.64
2433.00,99.64
2432.00,99.64
2431.00,99.64
2430.00,99.65
2429.00,99.65
2428.00,99.66
2427.00,99.66
2426.00,99.66
2425.00,99.67
2424.00,99.67
2423.00,99.66
2422.00,99.66
2421.00,99.66
2420.00,99.67
2419.00,99.66
2418.00,99.66
2417.00,99.66
2416.00,99.66
2415.00,99.67
2414.00,99.67
2413.00,99.67
2412.00,99.67
2411.00,99.67
2410.00,99.68
2409.00,99.68
2408.00,99.68
2407.00,99.69
2406.00,99.69
2405.00,99.70
2404.00,99.70
2403.00,99.70
2402.00,99.71
2401.00,99.71
2400.00,99.71
2399.00,99.72
2398.00,99.72
2397.00,99.72
2396.00,99.72
2395.00,99.72
2394.00,99.73
2393.00,99.73
2392.00,99.73
2391.00,99.73
2390.00,99.73
2389.00,99.73
2388.00,99.73
2387.00,99.73
2386.00,99.73
2385.00,99.73
2384.00,99.73
2383.00,99.74
2382.00,99.75
2381.00,99.75
2380.00,99.75
2379.00,99.75
2378.00,99.76
2377.00,99.77
2376.00,99.78
2375.00,99.78
2374.00,99.78
2373.00,99.78
2372.00,99.77
2371.00,99.76
2370.00,99.75
2369.00,99.75
2368.00,99.75
2367.00,99.75
2366.00,99.75
2365.00,99.75
2364.00,99.75
2363.00,99.74
2362.00,99.74
2361.00,99.73
2360.00,99.71
2359.00,99.70
2358.00,99.71
2357.00,99.72
2356.00,99.73
2355.00,99.73
2354.00,99.73
2353.00,99.73
2352.00,99.73
2351.00,99.72
2350.00,99.72
2349.00,99.72
2348.00,99.72
2347.00,99.72
2346.00,99.72
2345.00,99.71
2344.00,99.70
2343.00,99.69
2342.00,99.69
2341.00,99.69
2340.00,99.69
2339.00,99.69
2338.00,99.68
2337.00,99.68
2336.00,99.67
2335.00,99.67
2334.00,99.67
2333.00,99.68
2332.00,99.69
2331.00,99.69
2330.00,99.69
2329.00,99.69
2328.00,99.68
2327.00,99.65
2326.00,99.60
2325.00,99.55
2324.00,99.51
2323.00,99.51
2322.00,99.53
2321.00,99.55
2320.00,99.57
2319.00,99.58
2318.00,99.58
2317.00,99.59
2316.00,99.60
2315.00,99.61
2314.00,99.61
2313.00,99.61
2312.00,99.61
2311.00,99.61
2310.00,99.62
2309.00,99.62
2308.00,99.62
2307.00,99.62
2306.00,99.62
2305.00,99.62
2304.00,99.62
2303.00,99.62
2302.00,99.62
2301.00,99.61
2300.00,99.61
2299.00,99.60
2298.00,99.59
2297.00,99.59
2296.00,99.58
2295.00,99.58
2294.00,99.58
2293.00,99.58
2292.00,99.58
2291.00,99.57
2290.00,99.56
2289.00,99.55
2288.00,99.54
2287.00,99.54
2286.00,99.53
2285.00,99.53
2284.00,99.52
2283.00,99.52
2282.00,99.53
2281.00,99.54
2280.00,99.55
2279.00,99.56
2278.00,99.56
2277.00,99.56
2276.00,99.56
2275.00,99.57
2274.00,99.57
2273.00,99.58
2272.00,99.58
2271.00,99.58
2270.00,99.58
2269.00,99.58
2268.00,99.58
2267.00,99.58
2266.00,99.59
2265.00,99.60
2264.00,99.61
2263.00,99.61
2262.00,99.62
2261.00,99.61
2260.00,99.61
2259.00,99.60
2258.00,99.60
2257.00,99.60
2256.00,99.60
2255.00,99.62
2254.00,99.63
2253.00,99.65
2252.00,99.66
2251.00,99.66
2250.00,99.66
2249.00,99.65
2248.00,99.65
2247.00,99.64
2246.00,99.64
2245.00,99.64
2244.00,99.64
2243.00,99.64
2242.00,99.64
2241.00,99.65
2240.00,99.65
2239.00,99.65
2238.00,99.65
2237.00,99.66
2236.00,99.66
2235.00,99.65
2234.00,99.65
2233.00,99.65
2232.00,99.65
2231.00,99.66
2230.00,99.66
2229.00,99.65
2228.00,99.64
2227.00,99.64
2226.00,99.65
2225.00,99.66
2224.00,99.67
2223.00,99.67
2222.00,99.67
2221.00,99.67
2220.00,99.67
2219.00,99.68
2218.00,99.69
2217.00,99.70
2216.00,99.70
2215.00,99.70
2214.00,99.69
2213.00,99.68
2212.00,99.68
2211.00,99.68
2210.00,99.68
2209.00,99.68
2208.00,99.68
2207.00,99.68
2206.00,99.69
2205.00,99.69
2204.00,99.68
2203.00,99.67
2202.00,99.67
2201.00,99.66
2200.00,99.66
2199.00,99.66
2198.00,99.66
2197.00,99.65
2196.00,99.64
2195.00,99.64
2194.00,99.64
2193.00,99.64
2192.00,99.64
2191.00,99.64
2190.00,99.63
2189.00,99.63
2188.00,99.62
2187.00,99.61
2186.00,99.61
2185.00,99.59
2184.00,99.59
2183.00,99.59
2182.00,99.61
2181.00,99.63
2180.00,99.65
2179.00,99.67
2178.00,99.68
2177.00,99.68
2176.00,99.69
2175.00,99.70
2174.00,99.70
2173.00,99.69
2172.00,99.66
2171.00,99.63
2170.00,99.59
2169.00,99.56
2168.00,99.54
2167.00,99.52
2166.00,99.51
2165.00,99.50
2164.00,99.48
2163.00,99.46
2162.00,99.45
2161.00,99.49
2160.00,99.58
2159.00,99.72
2158.00,99.88
2157.00,99.99
2156.00,100.04
2155.00,100.05
2154.00,100.02
2153.00,99.98
2152.00,99.95
2151.00,99.93
2150.00,99.92
2149.00,99.92
2148.00,99.92
2147.00,99.93
2146.00,99.93
2145.00,99.93
2144.00,99.93
2143.00,99.93
2142.00,99.92
2141.00,99.91
2140.00,99.91
2139.00,99.92
2138.00,99.93
2137.00,99.94
2136.00,99.96
2135.00,99.98
2134.00,100.00
2133.00,100.01
2132.00,100.01
2131.00,100.00
2130.00,99.98
2129.00,99.97
2128.00,99.95
2127.00,99.93
2126.00,99.91
2125.00,99.90
2124.00,99.88
2123.00,99.87
2122.00,99.85
2121.00,99.84
2120.00,99.83
2119.00,99.83
2118.00,99.83
2117.00,99.82
2116.00,99.80
2115.00,99.78
2114.00,99.76
2113.00,99.75
2112.00,99.75
2111.00,99.76
2110.00,99.77
2109.00,99.77
2108.00,99.77
2107.00,99.77
2106.00,99.76
2105.00,99.75
2104.00,99.75
2103.00,99.75
2102.00,99.75
2101.00,99.76
2100.00,99.76
2099.00,99.77
2098.00,99.78
2097.00,99.79
2096.00,99.81
2095.00,99.82
2094.00,99.84
2093.00,99.84
2092.00,99.83
2091.00,99.81
2090.00,99.80
2089.00,99.79
2088.00,99.78
2087.00,99.77
2086.00,99.75
2085.00,99.74
2084.00,99.73
2083.00,99.73
2082.00,99.73
2081.00,99.73
2080.00,99.74
2079.00,99.73
2078.00,99.73
2077.00,99.72
2076.00,99.71
2075.00,99.71
2074.00,99.71
2073.00,99.72
2072.00,99.72
2071.00,99.72
2070.00,99.71
2069.00,99.70
2068.00,99.70
2067.00,99.70
2066.00,99.71
2065.00,99.72
2064.00,99.73
2063.00,99.74
2062.00,99.75
2061.00,99.74
2060.00,99.73
2059.00,99.72
2058.00,99.71
2057.00,99.70
2056.00,99.68
2055.00,99.68
2054.00,99.67
2053.00,99.65
2052.00,99.61
2051.00,99.56
2050.00,99.54
2049.00,99.56
2048.00,99.59
2047.00,99.61
2046.00,99.61
2045.00,99.62
2044.00,99.62
2043.00,99.62
2042.00,99.60
2041.00,99.59
2040.00,99.58
2039.00,99.57
2038.00,99.58
2037.00,99.58
2036.00,99.58
2035.00,99.58
2034.00,99.60
2033.00,99.62
2032.00,99.63
2031.00,99.63
2030.00,99.63
2029.00,99.63
2028.00,99.63
2027.00,99.65
2026.00,99.68
2025.00,99.70
2024.00,99.71
2023.00,99.71
2022.00,99.70
2021.00,99.70
2020.00,99.70
2019.00,99.70
2018.00,99.70
2017.00,99.69
2016.00,99.69
2015.00,99.69
2014.00,99.69
2013.00,99.70
2012.00,99.70
2011.00,99.70
2010.00,99.70
2009.00,99.71
2008.00,99.73
2007.00,99.76
2006.00,99.78
2005.00,99.79
2004.00,99.77
2003.00,99.76
2002.00,99.74
2001.00,99.73
2000.00,99.71
1999.00,99.70
1998.00,99.69
1997.00,99.68
1996.00,99.67
1995.00,99.67
1994.00,99.67
1993.00,99.67
1992.00,99.66
1991.00,99.66
1990.00,99.65
1989.00,99.65
1988.00,99.64
1987.00,99.63
1986.00,99.60
1985.00,99.57
1984.00,99.53
1983.00,99.50
1982.00,99.47
1981.00,99.44
1980.00,99.43
1979.00,99.45
1978.00,99.51
1977.00,99.58
1976.00,99.64
1975.00,99.68
1974.00,99.71
1973.00,99.73
1972.00,99.74
1971.00,99.74
1970.00,99.75
1969.00,99.76
1968.00,99.75
1967.00,99.75
1966.00,99.74
1965.00,99.72
1964.00,99.72
1963.00,99.73
1962.00,99.76
1961.00,99.79
1960.00,99.81
1959.00,99.83
1958.00,99.84
1957.00,99.83
1956.00,99.82
1955.00,99.80
1954.00,99.79
1953.00,99.78
1952.00,99.78
1951.00,99.78
1950.00,99.78
1949.00,99.79
1948.00,99.80
1947.00,99.81
1946.00,99.81
1945.00,99.81
1944.00,99.80
1943.00,99.79
1942.00,99.79
1941.00,99.79
1940.00,99.79
1939.00,99.80
1938.00,99.80
1937.00,99.80
1936.00,99.80
1935.00,99.80
1934.00,99.81
1933.00,99.82
1932.00,99.82
1931.00,99.83
1930.00,99.85
1929.00,99.85
1928.00,99.84
1927.00,99.83
1926.00,99.83
1925.00,99.82
1924.00,99.82
1923.00,99.82
1922.00,99.82
1921.00,99.82
1920.00,99.82
1919.00,99.83
1918.00,99.83
1917.00,99.83
1916.00,99.83
1915.00,99.83
1914.00,99.84
1913.00,99.84
1912.00,99.84
1911.00,99.84
1910.00,99.84
1909.00,99.84
1908.00,99.83
1907.00,99.84
1906.00,99.84
1905.00,99.84
1904.00,99.84
1903.00,99.84
1902.00,99.84
1901.00,99.84
1900.00,99.84
1899.00,99.84
1898.00,99.84
1897.00,99.83
1896.00,99.82
1895.00,99.82
1894.00,99.82
1893.00,99.82
1892.00,99.82
1891.00,99.82
1890.00,99.82
1889.00,99.81
1888.00,99.80
1887.00,99.81
1886.00,99.82
1885.00,99.83
1884.00,99.83
1883.00,99.83
1882.00,99.83
1881.00,99.82
1880.00,99.82
1879.00,99.82
1878.00,99.82
1877.00,99.82
1876.00,99.82
1875.00,99.82
1874.00,99.82
1873.00,99.82
1872.00,99.82
1871.00,99.82
1870.00,99.82
1869.00,99.82
1868.00,99.81
1867.00,99.81
1866.00,99.81
1865.00,99.82
1864.00,99.82
1863.00,99.83
1862.00,99.84
1861.00,99.84
1860.00,99.83
1859.00,99.83
1858.00,99.84
1857.00,99.84
1856.00,99.84
1855.00,99.83
1854.00,99.83
1853.00,99.83
1852.00,99.83
1851.00,99.83
1850.00,99.83
1849.00,99.83
1848.00,99.83
1847.00,99.83
1846.00,99.83
1845.00,99.83
1844.00,99.83
1843.00,99.83
1842.00,99.83
1841.00,99.83
1840.00,99.83
1839.00,99.84
1838.00,99.83
1837.00,99.83
1836.00,99.82
1835.00,99.82
1834.00,99.82
1833.00,99.82
1832.00,99.81
1831.00,99.80
1830.00,99.79
1829.00,99.78
1828.00,99.77
1827.00,99.77
1826.00,99.77
1825.00,99.77
1824.00,99.77
1823.00,99.77
1822.00,99.78
1821.00,99.78
1820.00,99.79
1819.00,99.79
1818.00,99.80
1817.00,99.80
1816.00,99.80
1815.00,99.79
1814.00,99.79
1813.00,99.78
1812.00,99.77
1811.00,99.76
1810.00,99.75
1809.00,99.75
1808.00,99.74
1807.00,99.74
1806.00,99.74
1805.00,99.73
1804.00,99.71
1803.00,99.70
1802.00,99.70
1801.00,99.70
1800.00,99.70
1799.00,99.70
1798.00,99.70
1797.00,99.70
1796.00,99.70
1795.00,99.69
1794.00,99.69
1793.00,99.69
1792.00,99.68
1791.00,99.68
1790.00,99.68
1789.00,99.68
1788.00,99.68
1787.00,99.68
1786.00,99.67
1785.00,99.66
1784.00,99.65
1783.00,99.65
1782.00,99.64
1781.00,99.64
1780.00,99.64
1779.00,99.64
1778.00,99.64
1777.00,99.64
1776.00,99.63
1775.00,99.63
1774.00,99.63
1773.00,99.62
1772.00,99.61
1771.00,99.60
1770.00,99.59
1769.00,99.59
1768.00,99.59
1767.00,99.58
1766.00,99.57
1765.00,99.56
1764.00,99.54
1763.00,99.52
1762.00,99.49
1761.00,99.46
1760.00,99.43
1759.00,99.40
1758.00,99.37
1757.00,99.32
1756.00,99.27
1755.00,99.22
1754.00,99.18
1753.00,99.12
1752.00,99.05
1751.00,98.95
1750.00,98.84
1749.00,98.72
1748.00,98.59
1747.00,98.45
1746.00,98.31
1745.00,98.15
1744.00,97.98
1743.00,97.79
1742.00,97.61
1741.00,97.41
1740.00,97.20
1739.00,97.00
1738.00,96.83
1737.00,96.70
1736.00,96.59
1735.00,96.47
1734.00,96.33
1733.00,96.24
1732.00,96.20
1731.00,96.19
1730.00,96.21
1729.00,96.24
1728.00,96.30
1727.00,96.39
1726.00,96.49
1725.00,96.61
1724.00,96.75
1723.00,96.89
1722.00,97.03
1721.00,97.15
1720.00,97.29
1719.00,97.45
1718.00,97.64
1717.00,97.81
1716.00,97.96
1715.00,98.09
1714.00,98.22
1713.00,98.33
1712.00,98.42
1711.00,98.52
1710.00,98.60
1709.00,98.67
1708.00,98.73
1707.00,98.78
1706.00,98.83
1705.00,98.86
1704.00,98.88
1703.00,98.91
1702.00,98.97
1701.00,99.02
1700.00,99.04
1699.00,99.04
1698.00,99.04
1697.00,99.03
1696.00,99.03
1695.00,99.04
1694.00,99.05
1693.00,99.06
1692.00,99.05
1691.00,99.05
1690.00,99.05
1689.00,99.03
1688.00,99.01
1687.00,99.00
1686.00,99.00
1685.00,98.99
1684.00,98.95
1683.00,98.93
1682.00,98.92
1681.00,98.91
1680.00,98.90
1679.00,98.89
1678.00,98.88
1677.00,98.87
1676.00,98.86
1675.00,98.83
1674.00,98.81
1673.00,98.79
1672.00,98.77
1671.00,98.76
1670.00,98.74
1669.00,98.71
1668.00,98.69
1667.00,98.68
1666.00,98.67
1665.00,98.67
1664.00,98.66
1663.00,98.65
1662.00,98.64
1661.00,98.63
1660.00,98.62
1659.00,98.61
1658.00,98.61
1657.00,98.59
1656.00,98.56
1655.00,98.55
1654.00,98.55
1653.00,98.53
1652.00,98.51
1651.00,98.51
1650.00,98.51
1649.00,98.50
1648.00,98.49
1647.00,98.46
1646.00,98.43
1645.00,98.42
1644.00,98.41
1643.00,98.39
1642.00,98.37
1641.00,98.35
1640.00,98.33
1639.00,98.32
1638.00,98.32
1637.00,98.32
1636.00,98.32
1635.00,98.32
1634.00,98.33
1633.00,98.34
1632.00,98.34
1631.00,98.35
1630.00,98.36
1629.00,98.37
1628.00,98.36
1627.00,98.36
1626.00,98.36
1625.00,98.36
1624.00,98.36
1623.00,98.35
1622.00,98.34
1621.00,98.32
1620.00,98.31
1619.00,98.30
1618.00,98.30
1617.00,98.27
1616.00,98.24
1615.00,98.21
1614.00,98.19
1613.00,98.17
1612.00,98.15
1611.00,98.12
1610.00,98.09
1609.00,98.04
1608.00,97.99
1607.00,97.94
1606.00,97.89
1605.00,97.85
1604.00,97.81
1603.00,97.79
1602.00,97.78
1601.00,97.78
1600.00,97.79
1599.00,97.82
1598.00,97.85
1597.00,97.87
1596.00,97.89
1595.00,97.91
1594.00,97.93
1593.00,97.95
1592.00,97.96
1591.00,97.98
1590.00,97.99
1589.00,98.00
1588.00,98.00
1587.00,98.01
1586.00,98.02
1585.00,98.02
1584.00,98.02
1583.00,98.03
1582.00,98.04
1581.00,98.05
1580.00,98.07
1579.00,98.08
1578.00,98.10
1577.00,98.12
1576.00,98.14
1575.00,98.16
1574.00,98.18
1573.00,98.20
1572.00,98.23
1571.00,98.25
1570.00,98.28
1569.00,98.30
1568.00,98.33
1567.00,98.36
1566.00,98.39
1565.00,98.41
1564.00,98.41
1563.00,98.42
1562.00,98.42
1561.00,98.45
1560.00,98.49
1559.00,98.53
1558.00,98.55
1557.00,98.57
1556.00,98.59
1555.00,98.61
1554.00,98.64
1553.00,98.67
1552.00,98.68
1551.00,98.69
1550.00,98.71
1549.00,98.73
1548.00,98.74
1547.00,98.76
1546.00,98.78
1545.00,98.78
1544.00,98.77
1543.00,98.78
1542.00,98.81
1541.00,98.84
1540.00,98.87
1539.00,98.90
1538.00,98.93
1537.00,98.95
1536.00,98.96
1535.00,98.99
1534.00,99.01
1533.00,99.03
1532.00,99.03
1531.00,99.05
1530.00,99.07
1529.00,99.08
1528.00,99.08
1527.00,99.08
1526.00,99.09
1525.00,99.10
1524.00,99.11
1523.00,99.11
1522.00,99.12
1521.00,99.11
1520.00,99.10
1519.00,99.10
1518.00,99.11
1517.00,99.11
1516.00,99.10
1515.00,99.11
1514.00,99.12
1513.00,99.13
1512.00,99.12
1511.00,99.11
1510.00,99.10
1509.00,99.10
1508.00,99.10
1507.00,99.09
1506.00,99.09
1505.00,99.09
1504.00,99.07
1503.00,99.06
1502.00,99.04
1501.00,99.00
1500.00,98.95
1499.00,98.88
1498.00,98.80
1497.00,98.67
1496.00,98.52
1495.00,98.40
1494.00,98.35
1493.00,98.33
1492.00,98.36
1491.00,98.41
1490.00,98.47
1489.00,98.50
1488.00,98.51
1487.00,98.53
1486.00,98.55
1485.00,98.55
1484.00,98.54
1483.00,98.54
1482.00,98.52
1481.00,98.49
1480.00,98.45
1479.00,98.42
1478.00,98.38
1477.00,98.32
1476.00,98.26
1475.00,98.20
1474.00,98.14
1473.00,98.04
1472.00,97.92
1471.00,97.82
1470.00,97.73
1469.00,97.64
1468.00,97.54
1467.00,97.45
1466.00,97.37
1465.00,97.30
1464.00,97.23
1463.00,97.19
1462.00,97.16
1461.00,97.12
1460.00,97.05
1459.00,96.97
1458.00,96.82
1457.00,96.59
1456.00,96.35
1455.00,96.16
1454.00,96.00
1453.00,95.84
1452.00,95.69
1451.00,95.57
1450.00,95.44
1449.00,95.26
1448.00,95.00
1447.00,94.69
1446.00,94.33
1445.00,93.84
1444.00,93.19
1443.00,92.36
1442.00,91.35
1441.00,90.19
1440.00,88.99
1439.00,87.78
1438.00,86.46
1437.00,85.08
1436.00,84.02
1435.00,83.55
1434.00,83.50
1433.00,83.64
1432.00,83.79
1431.00,83.78
1430.00,83.39
1429.00,82.58
1428.00,81.62
1427.00,80.91
1426.00,80.75
1425.00,81.31
1424.00,82.50
1423.00,83.89
1422.00,85.15
1421.00,86.24
1420.00,87.32
1419.00,88.38
1418.00,89.24
1417.00,89.91
1416.00,90.50
1415.00,91.10
1414.00,91.74
1413.00,92.40
1412.00,93.09
1411.00,93.77
1410.00,94.38
1409.00,94.91
1408.00,95.37
1407.00,95.74
1406.00,96.04
1405.00,96.29
1404.00,96.48
1403.00,96.62
1402.00,96.71
1401.00,96.78
1400.00,96.84
1399.00,96.87
1398.00,96.86
1397.00,96.84
1396.00,96.79
1395.00,96.70
1394.00,96.59
1393.00,96.47
1392.00,96.34
1391.00,96.19
1390.00,96.02
1389.00,95.83
1388.00,95.63
1387.00,95.43
1386.00,95.26
1385.00,95.11
1384.00,95.00
1383.00,94.89
1382.00,94.80
1381.00,94.73
1380.00,94.69
1379.00,94.66
1378.00,94.66
1377.00,94.67
1376.00,94.70
1375.00,94.72
1374.00,94.74
1373.00,94.76
1372.00,94.76
1371.00,94.73
1370.00,94.68
1369.00,94.60
1368.00,94.49
1367.00,94.37
1366.00,94.24
1365.00,94.09
1364.00,93.91
1363.00,93.70
1362.00,93.49
1361.00,93.29
1360.00,93.11
1359.00,92.93
1358.00,92.74
1357.00,92.56
1356.00,92.38
1355.00,92.24
1354.00,92.13
1353.00,92.08
1352.00,92.08
1351.00,92.13
1350.00,92.19
1349.00,92.25
1348.00,92.26
1347.00,92.20
1346.00,92.06
1345.00,91.81
1344.00,91.46
1343.00,91.00
1342.00,90.42
1341.00,89.70
1340.00,88.85
1339.00,87.97
1338.00,87.16
1337.00,86.50
1336.00,86.01
1335.00,85.68
1334.00,85.48
1333.00,85.36
1332.00,85.30
1331.00,85.27
1330.00,85.27
1329.00,85.31
1328.00,85.39
1327.00,85.51
1326.00,85.68
1325.00,85.89
1324.00,86.14
1323.00,86.43
1322.00,86.75
1321.00,87.10
1320.00,87.46
1319.00,87.82
1318.00,88.18
1317.00,88.51
1316.00,88.82
1315.00,89.10
1314.00,89.35
1313.00,89.58
1312.00,89.78
1311.00,89.97
1310.00,90.14
1309.00,90.30
1308.00,90.46
1307.00,90.61
1306.00,90.76
1305.00,90.90
1304.00,91.04
1303.00,91.20
1302.00,91.36
1301.00,91.53
1300.00,91.71
1299.00,91.89
1298.00,92.09
1297.00,92.29
1296.00,92.48
1295.00,92.67
1294.00,92.85
1293.00,93.00
1292.00,93.14
1291.00,93.24
1290.00,93.31
1289.00,93.34
1288.00,93.33
1287.00,93.28
1286.00,93.20
1285.00,93.09
1284.00,92.94
1283.00,92.76
1282.00,92.55
1281.00,92.32
1280.00,92.06
1279.00,91.78
1278.00,91.47
1277.00,91.13
1276.00,90.76
1275.00,90.34
1274.00,89.88
1273.00,89.37
1272.00,88.81
1271.00,88.20
1270.00,87.55
1269.00,86.86
1268.00,86.14
1267.00,85.41
1266.00,84.68
1265.00,83.97
1264.00,83.28
1263.00,82.62
1262.00,82.00
1261.00,81.39
1260.00,80.76
1259.00,80.11
1258.00,79.43
1257.00,78.73
1256.00,78.10
1255.00,77.67
1254.00,77.53
1253.00,77.66
1252.00,77.95
1251.00,78.30
1250.00,78.63
1249.00,78.88
1248.00,79.06
1247.00,79.22
1246.00,79.37
1245.00,79.50
1244.00,79.61
1243.00,79.74
1242.00,79.88
1241.00,80.05
1240.00,80.24
1239.00,80.48
1238.00,80.77
1237.00,81.08
1236.00,81.42
1235.00,81.76
1234.00,82.10
1233.00,82.41
1232.00,82.70
1231.00,83.02
1230.00,83.44
1229.00,83.98
1228.00,84.68
1227.00,85.54
1226.00,86.47
1225.00,87.42
1224.00,88.30
1223.00,89.08
1222.00,89.71
1221.00,90.19
1220.00,90.53
1219.00,90.75
1218.00,90.88
1217.00,90.93
1216.00,90.92
1215.00,90.88
1214.00,90.82
1213.00,90.74
1212.00,90.65
1211.00,90.56
1210.00,90.45
1209.00,90.34
1208.00,90.21
1207.00,90.07
1206.00,89.93
1205.00,89.78
1204.00,89.64
1203.00,89.51
1202.00,89.38
1201.00,89.27
1200.00,89.18
1199.00,89.12
1198.00,89.10
1197.00,89.10
1196.00,89.14
1195.00,89.23
1194.00,89.35
1193.00,89.52
1192.00,89.71
1191.00,89.93
1190.00,90.18
1189.00,90.45
1188.00,90.73
1187.00,91.01
1186.00,91.29
1185.00,91.56
1184.00,91.81
1183.00,92.03
1182.00,92.23
1181.00,92.39
1180.00,92.53
1179.00,92.64
1178.00,92.73
1177.00,92.79
1176.00,92.84
1175.00,92.88
1174.00,92.90
1173.00,92.91
1172.00,92.92
1171.00,92.93
1170.00,92.96
1169.00,93.00
1168.00,93.06
1167.00,93.16
1166.00,93.29
1165.00,93.45
1164.00,93.65
1163.00,93.88
1162.00,94.12
1161.00,94.36
1160.00,94.59
1159.00,94.80
1158.00,94.98
1157.00,95.12
1156.00,95.24
1155.00,95.33
1154.00,95.40
1153.00,95.45
1152.00,95.51
1151.00,95.56
1150.00,95.61
1149.00,95.67
1148.00,95.74
1147.00,95.80
1146.00,95.86
1145.00,95.91
1144.00,95.95
1143.00,95.99
1142.00,96.01
1141.00,96.03
1140.00,96.03
1139.00,96.02
1138.00,95.99
1137.00,95.94
1136.00,95.87
1135.00,95.77
1134.00,95.66
1133.00,95.53
1132.00,95.38
1131.00,95.22
1130.00,95.03
1129.00,94.83
1128.00,94.61
1127.00,94.39
1126.00,94.15
1125.00,93.91
1124.00,93.68
1123.00,93.45
1122.00,93.23
1121.00,93.02
1120.00,92.83
1119.00,92.65
1118.00,92.49
1117.00,92.34
1116.00,92.20
1115.00,92.05
1114.00,91.89
1113.00,91.70
1112.00,91.47
1111.00,91.21
1110.00,90.92
1109.00,90.59
1108.00,90.24
1107.00,89.88
1106.00,89.53
1105.00,89.21
1104.00,88.94
1103.00,88.73
1102.00,88.58
1101.00,88.46
1100.00,88.38
1099.00,88.32
1098.00,88.27
1097.00,88.23
1096.00,88.20
1095.00,88.19
1094.00,88.21
1093.00,88.24
1092.00,88.30
1091.00,88.39
1090.00,88.50
1089.00,88.62
1088.00,88.75
1087.00,88.90
1086.00,89.06
1085.00,89.21
1084.00,89.37
1083.00,89.52
1082.00,89.66
1081.00,89.79
1080.00,89.91
1079.00,90.03
1078.00,90.15
1077.00,90.26
1076.00,90.35
1075.00,90.44
1074.00,90.52
1073.00,90.59
1072.00,90.67
1071.00,90.74
1070.00,90.80
1069.00,90.85
1068.00,90.91
1067.00,90.97
1066.00,91.03
1065.00,91.09
1064.00,91.14
1063.00,91.20
1062.00,91.25
1061.00,91.30
1060.00,91.35
1059.00,91.41
1058.00,91.46
1057.00,91.51
1056.00,91.55
1055.00,91.58
1054.00,91.62
1053.00,91.65
1052.00,91.69
1051.00,91.72
1050.00,91.75
1049.00,91.78
1048.00,91.80
1047.00,91.83
1046.00,91.85
1045.00,91.86
1044.00,91.87
1043.00,91.87
1042.00,91.87
1041.00,91.86
1040.00,91.86
1039.00,91.84
1038.00,91.82
1037.00,91.79
1036.00,91.75
1035.00,91.71
1034.00,91.66
1033.00,91.61
1032.00,91.58
1031.00,91.55
1030.00,91.52
1029.00,91.50
1028.00,91.48
1027.00,91.47
1026.00,91.47
1025.00,91.48
1024.00,91.48
1023.00,91.49
1022.00,91.50
1021.00,91.50
1020.00,91.49
1019.00,91.49
1018.00,91.47
1017.00,91.45
1016.00,91.43
1015.00,91.41
1014.00,91.38
1013.00,91.36
1012.00,91.32
1011.00,91.29
1010.00,91.25
1009.00,91.20
1008.00,91.15
1007.00,91.09
1006.00,91.04
1005.00,90.97
1004.00,90.89
1003.00,90.80
1002.00,90.70
1001.00,90.59
1000.00,90.46
999.00,90.32
998.00,90.18
997.00,90.03
996.00,89.89
995.00,89.74
994.00,89.61
993.00,89.48
992.00,89.34
991.00,89.19
990.00,89.04
989.00,88.85
988.00,88.64
987.00,88.39
986.00,88.12
985.00,87.81
984.00,87.47
983.00,87.11
982.00,86.71
981.00,86.29
980.00,85.83
979.00,85.33
978.00,84.81
977.00,84.25
976.00,83.66
975.00,83.05
974.00,82.43
973.00,81.81
972.00,81.20
971.00,80.64
970.00,80.13
969.00,79.68
968.00,79.31
967.00,79.02
966.00,78.83
965.00,78.72
964.00,78.68
963.00,78.72
962.00,78.82
961.00,78.96
960.00,79.11
959.00,79.30
958.00,79.53
957.00,79.81
956.00,80.15
955.00,80.57
954.00,81.05
953.00,81.58
952.00,82.11
951.00,82.64
950.00,83.16
949.00,83.63
948.00,84.05
947.00,84.43
946.00,84.78
945.00,85.11
944.00,85.40
943.00,85.69
942.00,85.96
941.00,86.21
940.00,86.44
939.00,86.65
938.00,86.84
937.00,87.00
936.00,87.15
935.00,87.28
934.00,87.40
933.00,87.51
932.00,87.60
931.00,87.69
930.00,87.76
929.00,87.82
928.00,87.87
927.00,87.92
926.00,87.98
925.00,88.03
924.00,88.08
923.00,88.13
922.00,88.18
921.00,88.23
920.00,88.27
919.00,88.32
918.00,88.37
917.00,88.43
916.00,88.49
915.00,88.56
914.00,88.66
913.00,88.78
912.00,88.93
911.00,89.10
910.00,89.30
909.00,89.52
908.00,89.74
907.00,89.98
906.00,90.21
905.00,90.43
904.00,90.64
903.00,90.82
902.00,90.98
901.00,91.11
900.00,91.22
899.00,91.32
898.00,91.40
897.00,91.46
896.00,91.51
895.00,91.56
894.00,91.61
893.00,91.65
892.00,91.68
891.00,91.72
890.00,91.74
889.00,91.75
888.00,91.75
887.00,91.74
886.00,91.73
885.00,91.72
884.00,91.70
883.00,91.69
882.00,91.68
881.00,91.66
880.00,91.65
879.00,91.64
878.00,91.63
877.00,91.62
876.00,91.61
875.00,91.61
874.00,91.60
873.00,91.60
872.00,91.61
871.00,91.62
870.00,91.64
869.00,91.65
868.00,91.64
867.00,91.62
866.00,91.60
865.00,91.58
864.00,91.56
863.00,91.54
862.00,91.52
861.00,91.49
860.00,91.45
859.00,91.43
858.00,91.40
857.00,91.36
856.00,91.33
855.00,91.30
854.00,91.27
853.00,91.23
852.00,91.20
851.00,91.17
850.00,91.15
849.00,91.12
848.00,91.09
847.00,91.04
846.00,91.00
845.00,90.95
844.00,90.89
843.00,90.81
842.00,90.72
841.00,90.63
840.00,90.54
839.00,90.46
838.00,90.37
837.00,90.28
836.00,90.18
835.00,90.10
834.00,90.06
833.00,90.05
832.00,90.09
831.00,90.20
830.00,90.38
829.00,90.63
828.00,90.92
827.00,91.25
826.00,91.59
825.00,91.93
824.00,92.23
823.00,92.51
822.00,92.76
821.00,92.96
820.00,93.10
819.00,93.21
818.00,93.28
817.00,93.31
816.00,93.32
815.00,93.32
814.00,93.31
813.00,93.29
812.00,93.26
811.00,93.25
810.00,93.23
809.00,93.23
808.00,93.22
807.00,93.21
806.00,93.20
805.00,93.18
804.00,93.15
803.00,93.11
802.00,93.08
801.00,93.03
800.00,92.98
799.00,92.92
798.00,92.87
797.00,92.80
796.00,92.72
795.00,92.64
794.00,92.55
793.00,92.47
792.00,92.39
791.00,92.31
790.00,92.22
789.00,92.12
788.00,91.99
787.00,91.86
786.00,91.73
785.00,91.59
784.00,91.46
783.00,91.32
782.00,91.18
781.00,91.01
780.00,90.84
779.00,90.66
778.00,90.48
777.00,90.30
776.00,90.09
775.00,89.88
774.00,89.66
773.00,89.43
772.00,89.18
771.00,88.93
770.00,88.67
769.00,88.40
768.00,88.12
767.00,87.84
766.00,87.54
765.00,87.24
764.00,86.92
763.00,86.61
762.00,86.31
761.00,86.00
760.00,85.70
759.00,85.42
758.00,85.17
757.00,84.93
756.00,84.70
755.00,84.47
754.00,84.25
753.00,84.03
752.00,83.79
751.00,83.54
750.00,83.30
749.00,83.04
748.00,82.77
747.00,82.50
746.00,82.24
745.00,81.97
744.00,81.67
743.00,81.37
742.00,81.08
741.00,80.76
740.00,80.44
739.00,80.13
738.00,79.83
737.00,79.52
736.00,79.20
735.00,78.88
734.00,78.56
733.00,78.22
732.00,77.87
731.00,77.51
730.00,77.15
729.00,76.79
728.00,76.42
727.00,76.07
726.00,75.74
725.00,75.39
724.00,75.03
723.00,74.68
722.00,74.33
721.00,73.94
720.00,73.52
719.00,73.11
718.00,72.72
717.00,72.31
716.00,71.86
715.00,71.39
714.00,70.93
713.00,70.45
712.00,69.94
711.00,69.42
710.00,68.90
709.00,68.33
708.00,67.71
707.00,67.07
706.00,66.41
705.00,65.70
704.00,64.91
703.00,64.10
702.00,63.29
701.00,62.51
700.00,61.78
699.00,61.21
698.00,60.83
697.00,60.59
696.00,60.43
695.00,60.31
694.00,60.22
693.00,60.08
692.00,59.89
691.00,59.69
690.00,59.53
689.00,59.34
688.00,59.12
687.00,58.93
686.00,58.79
685.00,58.64
684.00,58.46
683.00,58.31
682.00,58.18
681.00,58.05
680.00,57.90
679.00,57.79
678.00,57.75
677.00,57.70
676.00,57.65
675.00,57.63
674.00,57.69
673.00,57.75
672.00,57.81
671.00,57.89
670.00,58.02
669.00,58.13
668.00,58.22
667.00,58.37
666.00,58.58
665.00,58.74
664.00,58.83
663.00,58.90
662.00,58.97
661.00,58.96
660.00,58.85
659.00,58.69
658.00,58.51
657.00,58.25
656.00,57.88
655.00,57.50
654.00,57.14
653.00,56.75
652.00,56.32
651.00,55.91
650.00,55.55
