Created as New Dataset,PVOH MW 205K
cm-1,%T
4000.00,98.23
3999.00,98.23
3998.00,98.23
3997.00,98.23
3996.00,98.23
3995.00,98.23
3994.00,98.23
3993.00,98.23
3992.00,98.23
3991.00,98.23
3990.00,98.23
3989.00,98.23
3988.00,98.23
3987.00,98.23
3986.00,98.23
3985.00,98.23
3984.00,98.23
3983.00,98.24
3982.00,98.24
3981.00,98.24
3980.00,98.24
3979.00,98.24
3978.00,98.24
3977.00,98.24
3976.00,98.24
3975.00,98.23
3974.00,98.23
3973.00,98.23
3972.00,98.23
3971.00,98.23
3970.00,98.23
3969.00,98.23
3968.00,98.23
3967.00,98.23
3966.00,98.23
3965.00,98.23
3964.00,98.23
3963.00,98.23
3962.00,98.22
3961.00,98.22
3960.00,98.22
3959.00,98.23
3958.00,98.23
3957.00,98.23
3956.00,98.23
3955.00,98.23
3954.00,98.23
3953.00,98.23
3952.00,98.23
3951.00,98.23
3950.00,98.23
3949.00,98.23
3948.00,98.23
3947.00,98.24
3946.00,98.24
3945.00,98.24
3944.00,98.24
3943.00,98.24
3942.00,98.24
3941.00,98.24
3940.00,98.24
3939.00,98.24
3938.00,98.24
3937.00,98.24
3936.00,98.24
3935.00,98.24
3934.00,98.24
3933.00,98.24
3932.00,98.24
3931.00,98.24
3930.00,98.25
3929.00,98.25
3928.00,98.25
3927.00,98.25
3926.00,98.25
3925.00,98.25
3924.00,98.25
3923.00,98.24
3922.00,98.24
3921.00,98.24
3920.00,98.24
3919.00,98.24
3918.00,98.25
3917.00,98.25
3916.00,98.25
3915.00,98.25
3914.00,98.25
3913.00,98.25
3912.00,98.25
3911.00,98.25
3910.00,98.25
3909.00,98.25
3908.00,98.25
3907.00,98.25
3906.00,98.25
3905.00,98.25
3904.00,98.24
3903.00,98.24
3902.00,98.24
3901.00,98.24
3900.00,98.24
3899.00,98.24
3898.00,98.24
3897.00,98.24
3896.00,98.24
3895.00,98.24
3894.00,98.25
3893.00,98.25
3892.00,98.24
3891.00,98.24
3890.00,98.24
3889.00,98.25
3888.00,98.25
3887.00,98.25
3886.00,98.25
3885.00,98.25
3884.00,98.25
3883.00,98.25
3882.00,98.25
3881.00,98.25
3880.00,98.25
3879.00,98.26
3878.00,98.25
3877.00,98.25
3876.00,98.25
3875.00,98.25
3874.00,98.25
3873.00,98.25
3872.00,98.25
3871.00,98.25
3870.00,98.25
3869.00,98.25
3868.00,98.25
3867.00,98.26
3866.00,98.26
3865.00,98.26
3864.00,98.26
3863.00,98.25
3862.00,98.25
3861.00,98.25
3860.00,98.25
3859.00,98.25
3858.00,98.25
3857.00,98.25
3856.00,98.25
3855.00,98.25
3854.00,98.25
3853.00,98.25
3852.00,98.26
3851.00,98.26
3850.00,98.26
3849.00,98.26
3848.00,98.26
3847.00,98.26
3846.00,98.26
3845.00,98.26
3844.00,98.26
3843.00,98.26
3842.00,98.27
3841.00,98.27
3840.00,98.27
3839.00,98.26
3838.00,98.26
3837.00,98.26
3836.00,98.26
3835.00,98.26
3834.00,98.26
3833.00,98.26
3832.00,98.26
3831.00,98.26
3830.00,98.26
3829.00,98.26
3828.00,98.26
3827.00,98.26
3826.00,98.26
3825.00,98.26
3824.00,98.26
3823.00,98.27
3822.00,98.27
3821.00,98.27
3820.00,98.27
3819.00,98.27
3818.00,98.27
3817.00,98.27
3816.00,98.27
3815.00,98.26
3814.00,98.26
3813.00,98.26
3812.00,98.26
3811.00,98.26
3810.00,98.26
3809.00,98.26
3808.00,98.26
3807.00,98.26
3806.00,98.26
3805.00,98.27
3804.00,98.27
3803.00,98.27
3802.00,98.27
3801.00,98.27
3800.00,98.27
3799.00,98.27
3798.00,98.27
3797.00,98.26
3796.00,98.26
3795.00,98.26
3794.00,98.26
3793.00,98.26
3792.00,98.26
3791.00,98.26
3790.00,98.26
3789.00,98.26
3788.00,98.27
3787.00,98.27
3786.00,98.27
3785.00,98.27
3784.00,98.26
3783.00,98.26
3782.00,98.25
3781.00,98.25
3780.00,98.25
3779.00,98.26
3778.00,98.26
3777.00,98.26
3776.00,98.26
3775.00,98.26
3774.00,98.25
3773.00,98.25
3772.00,98.25
3771.00,98.26
3770.00,98.26
3769.00,98.26
3768.00,98.26
3767.00,98.26
3766.00,98.26
3765.00,98.26
3764.00,98.26
3763.00,98.26
3762.00,98.26
3761.00,98.26
3760.00,98.26
3759.00,98.27
3758.00,98.27
3757.00,98.27
3756.00,98.27
3755.00,98.27
3754.00,98.27
3753.00,98.27
3752.00,98.27
3751.00,98.27
3750.00,98.27
3749.00,98.27
3748.00,98.26
3747.00,98.26
3746.00,98.26
3745.00,98.26
3744.00,98.27
3743.00,98.27
3742.00,98.27
3741.00,98.27
3740.00,98.26
3739.00,98.26
3738.00,98.26
3737.00,98.26
3736.00,98.26
3735.00,98.26
3734.00,98.27
3733.00,98.26
3732.00,98.26
3731.00,98.26
3730.00,98.26
3729.00,98.26
3728.00,98.26
3727.00,98.26
3726.00,98.27
3725.00,98.27
3724.00,98.27
3723.00,98.27
3722.00,98.27
3721.00,98.27
3720.00,98.27
3719.00,98.28
3718.00,98.28
3717.00,98.28
3716.00,98.28
3715.00,98.28
3714.00,98.28
3713.00,98.28
3712.00,98.28
3711.00,98.29
3710.00,98.29
3709.00,98.30
3708.00,98.30
3707.00,98.30
3706.00,98.29
3705.00,98.29
3704.00,98.29
3703.00,98.29
3702.00,98.28
3701.00,98.28
3700.00,98.28
3699.00,98.28
3698.00,98.29
3697.00,98.29
3696.00,98.29
3695.00,98.30
3694.00,98.30
3693.00,98.30
3692.00,98.30
3691.00,98.30
3690.00,98.30
3689.00,98.30
3688.00,98.30
3687.00,98.30
3686.00,98.30
3685.00,98.30
3684.00,98.30
3683.00,98.30
3682.00,98.29
3681.00,98.29
3680.00,98.29
3679.00,98.29
3678.00,98.28
3677.00,98.28
3676.00,98.26
3675.00,98.26
3674.00,98.25
3673.00,98.25
3672.00,98.25
3671.00,98.25
3670.00,98.25
3669.00,98.26
3668.00,98.26
3667.00,98.26
3666.00,98.26
3665.00,98.25
3664.00,98.25
3663.00,98.25
3662.00,98.24
3661.00,98.23
3660.00,98.23
3659.00,98.22
3658.00,98.22
3657.00,98.22
3656.00,98.21
3655.00,98.21
3654.00,98.21
3653.00,98.20
3652.00,98.20
3651.00,98.20
3650.00,98.19
3649.00,98.19
3648.00,98.18
3647.00,98.18
3646.00,98.17
3645.00,98.17
3644.00,98.16
3643.00,98.15
3642.00,98.15
3641.00,98.14
3640.00,98.14
3639.00,98.14
3638.00,98.13
3637.00,98.12
3636.00,98.11
3635.00,98.10
3634.00,98.09
3633.00,98.09
3632.00,98.08
3631.00,98.07
3630.00,98.06
3629.00,98.05
3628.00,98.05
3627.00,98.03
3626.00,98.02
3625.00,98.01
3624.00,98.00
3623.00,97.99
3622.00,97.98
3621.00,97.97
3620.00,97.96
3619.00,97.95
3618.00,97.94
3617.00,97.93
3616.00,97.92
3615.00,97.91
3614.00,97.90
3613.00,97.89
3612.00,97.88
3611.00,97.87
3610.00,97.86
3609.00,97.85
3608.00,97.83
3607.00,97.82
3606.00,97.81
3605.00,97.80
3604.00,97.79
3603.00,97.77
3602.00,97.76
3601.00,97.75
3600.00,97.73
3599.00,97.72
3598.00,97.71
3597.00,97.69
3596.00,97.67
3595.00,97.66
3594.00,97.64
3593.00,97.63
3592.00,97.61
3591.00,97.59
3590.00,97.57
3589.00,97.55
3588.00,97.53
3587.00,97.52
3586.00,97.51
3585.00,97.50
3584.00,97.48
3583.00,97.46
3582.00,97.44
3581.00,97.42
3580.00,97.40
3579.00,97.38
3578.00,97.37
3577.00,97.35
3576.00,97.33
3575.00,97.31
3574.00,97.29
3573.00,97.27
3572.00,97.24
3571.00,97.22
3570.00,97.20
3569.00,97.17
3568.00,97.14
3567.00,97.11
3566.00,97.08
3565.00,97.06
3564.00,97.04
3563.00,97.02
3562.00,97.00
3561.00,96.98
3560.00,96.95
3559.00,96.93
3558.00,96.90
3557.00,96.88
3556.00,96.86
3555.00,96.83
3554.00,96.81
3553.00,96.78
3552.00,96.75
3551.00,96.73
3550.00,96.70
3549.00,96.67
3548.00,96.64
3547.00,96.61
3546.00,96.58
3545.00,96.55
3544.00,96.52
3543.00,96.49
3542.00,96.47
3541.00,96.44
3540.00,96.41
3539.00,96.38
3538.00,96.35
3537.00,96.31
3536.00,96.28
3535.00,96.25
3534.00,96.22
3533.00,96.19
3532.00,96.16
3531.00,96.12
3530.00,96.09
3529.00,96.05
3528.00,96.01
3527.00,95.98
3526.00,95.95
3525.00,95.92
3524.00,95.89
3523.00,95.85
3522.00,95.82
3521.00,95.78
3520.00,95.75
3519.00,95.72
3518.00,95.69
3517.00,95.66
3516.00,95.63
3515.00,95.59
3514.00,95.56
3513.00,95.52
3512.00,95.49
3511.00,95.45
3510.00,95.41
3509.00,95.37
3508.00,95.34
3507.00,95.30
3506.00,95.27
3505.00,95.23
3504.00,95.20
3503.00,95.16
3502.00,95.13
3501.00,95.09
3500.00,95.06
3499.00,95.03
3498.00,94.99
3497.00,94.95
3496.00,94.92
3495.00,94.88
3494.00,94.84
3493.00,94.81
3492.00,94.77
3491.00,94.73
3490.00,94.70
3489.00,94.66
3488.00,94.63
3487.00,94.59
3486.00,94.55
3485.00,94.52
3484.00,94.48
3483.00,94.44
3482.00,94.40
3481.00,94.37
3480.00,94.33
3479.00,94.29
3478.00,94.26
3477.00,94.22
3476.00,94.18
3475.00,94.14
3474.00,94.10
3473.00,94.06
3472.00,94.03
3471.00,93.99
3470.00,93.96
3469.00,93.93
3468.00,93.89
3467.00,93.86
3466.00,93.82
3465.00,93.78
3464.00,93.74
3463.00,93.70
3462.00,93.67
3461.00,93.63
3460.00,93.59
3459.00,93.56
3458.00,93.52
3457.00,93.48
3456.00,93.45
3455.00,93.41
3454.00,93.38
3453.00,93.34
3452.00,93.30
3451.00,93.27
3450.00,93.23
3449.00,93.20
3448.00,93.16
3447.00,93.12
3446.00,93.09
3445.00,93.05
3444.00,93.01
3443.00,92.98
3442.00,92.94
3441.00,92.91
3440.00,92.88
3439.00,92.84
3438.00,92.81
3437.00,92.78
3436.00,92.75
3435.00,92.72
3434.00,92.69
3433.00,92.66
3432.00,92.62
3431.00,92.59
3430.00,92.55
3429.00,92.51
3428.00,92.47
3427.00,92.43
3426.00,92.40
3425.00,92.37
3424.00,92.34
3423.00,92.31
3422.00,92.27
3421.00,92.23
3420.00,92.20
3419.00,92.16
3418.00,92.13
3417.00,92.10
3416.00,92.08
3415.00,92.05
3414.00,92.02
3413.00,91.98
3412.00,91.95
3411.00,91.92
3410.00,91.89
3409.00,91.86
3408.00,91.83
3407.00,91.81
3406.00,91.78
3405.00,91.75
3404.00,91.72
3403.00,91.69
3402.00,91.66
3401.00,91.63
3400.00,91.60
3399.00,91.58
3398.00,91.55
3397.00,91.52
3396.00,91.50
3395.00,91.47
3394.00,91.44
3393.00,91.41
3392.00,91.39
3391.00,91.37
3390.00,91.34
3389.00,91.31
3388.00,91.29
3387.00,91.26
3386.00,91.23
3385.00,91.21
3384.00,91.19
3383.00,91.16
3382.00,91.14
3381.00,91.12
3380.00,91.10
3379.00,91.08
3378.00,91.06
3377.00,91.04
3376.00,91.01
3375.00,90.99
3374.00,90.96
3373.00,90.94
3372.00,90.92
3371.00,90.90
3370.00,90.89
3369.00,90.87
3368.00,90.86
3367.00,90.84
3366.00,90.82
3365.00,90.80
3364.00,90.78
3363.00,90.76
3362.00,90.75
3361.00,90.73
3360.00,90.71
3359.00,90.70
3358.00,90.68
3357.00,90.67
3356.00,90.65
3355.00,90.64
3354.00,90.63
3353.00,90.61
3352.00,90.60
3351.00,90.59
3350.00,90.58
3349.00,90.56
3348.00,90.55
3347.00,90.54
3346.00,90.53
3345.00,90.52
3344.00,90.50
3343.00,90.49
3342.00,90.48
3341.00,90.47
3340.00,90.46
3339.00,90.45
3338.00,90.44
3337.00,90.43
3336.00,90.42
3335.00,90.42
3334.00,90.41
3333.00,90.40
3332.00,90.40
3331.00,90.39
3330.00,90.39
3329.00,90.38
3328.00,90.37
3327.00,90.37
3326.00,90.36
3325.00,90.36
3324.00,90.35
3323.00,90.35
3322.00,90.35
3321.00,90.34
3320.00,90.34
3319.00,90.34
3318.00,90.34
3317.00,90.34
3316.00,90.33
3315.00,90.33
3314.00,90.33
3313.00,90.33
3312.00,90.33
3311.00,90.33
3310.00,90.33
3309.00,90.33
3308.00,90.32
3307.00,90.32
3306.00,90.33
3305.00,90.33
3304.00,90.33
3303.00,90.33
3302.00,90.33
3301.00,90.33
3300.00,90.33
3299.00,90.33
3298.00,90.33
3297.00,90.33
3296.00,90.34
3295.00,90.34
3294.00,90.35
3293.00,90.35
3292.00,90.36
3291.00,90.36
3290.00,90.37
3289.00,90.37
3288.00,90.38
3287.00,90.38
3286.00,90.39
3285.00,90.39
3284.00,90.40
3283.00,90.41
3282.00,90.41
3281.00,90.42
3280.00,90.43
3279.00,90.44
3278.00,90.44
3277.00,90.45
3276.00,90.46
3275.00,90.47
3274.00,90.48
3273.00,90.48
3272.00,90.49
3271.00,90.50
3270.00,90.52
3269.00,90.53
3268.00,90.54
3267.00,90.55
3266.00,90.57
3265.00,90.58
3264.00,90.59
3263.00,90.61
3262.00,90.62
3261.00,90.64
3260.00,90.65
3259.00,90.67
3258.00,90.68
3257.00,90.69
3256.00,90.71
3255.00,90.72
3254.00,90.74
3253.00,90.75
3252.00,90.76
3251.00,90.78
3250.00,90.80
3249.00,90.82
3248.00,90.84
3247.00,90.86
3246.00,90.88
3245.00,90.90
3244.00,90.92
3243.00,90.94
3242.00,90.96
3241.00,90.98
3240.00,91.00
3239.00,91.02
3238.00,91.04
3237.00,91.06
3236.00,91.09
3235.00,91.11
3234.00,91.13
3233.00,91.15
3232.00,91.17
3231.00,91.20
3230.00,91.22
3229.00,91.25
3228.00,91.27
3227.00,91.29
3226.00,91.32
3225.00,91.34
3224.00,91.37
3223.00,91.39
3222.00,91.42
3221.00,91.44
3220.00,91.47
3219.00,91.50
3218.00,91.53
3217.00,91.55
3216.00,91.58
3215.00,91.60
3214.00,91.63
3213.00,91.65
3212.00,91.68
3211.00,91.70
3210.00,91.73
3209.00,91.76
3208.00,91.79
3207.00,91.82
3206.00,91.85
3205.00,91.88
3204.00,91.91
3203.00,91.94
3202.00,91.97
3201.00,92.01
3200.00,92.04
3199.00,92.06
3198.00,92.09
3197.00,92.12
3196.00,92.14
3195.00,92.18
3194.00,92.21
3193.00,92.24
3192.00,92.27
3191.00,92.30
3190.00,92.33
3189.00,92.37
3188.00,92.40
3187.00,92.43
3186.00,92.46
3185.00,92.49
3184.00,92.51
3183.00,92.54
3182.00,92.58
3181.00,92.61
3180.00,92.64
3179.00,92.68
3178.00,92.71
3177.00,92.74
3176.00,92.77
3175.00,92.80
3174.00,92.83
3173.00,92.86
3172.00,92.89
3171.00,92.92
3170.00,92.96
3169.00,92.99
3168.00,93.03
3167.00,93.06
3166.00,93.09
3165.00,93.12
3164.00,93.14
3163.00,93.17
3162.00,93.20
3161.00,93.23
3160.00,93.27
3159.00,93.30
3158.00,93.33
3157.00,93.36
3156.00,93.39
3155.00,93.42
3154.00,93.45
3153.00,93.48
3152.00,93.51
3151.00,93.54
3150.00,93.57
3149.00,93.60
3148.00,93.64
3147.00,93.67
3146.00,93.70
3145.00,93.73
3144.00,93.76
3143.00,93.79
3142.00,93.81
3141.00,93.84
3140.00,93.87
3139.00,93.90
3138.00,93.93
3137.00,93.95
3136.00,93.98
3135.00,94.01
3134.00,94.04
3133.00,94.06
3132.00,94.09
3131.00,94.12
3130.00,94.14
3129.00,94.17
3128.00,94.20
3127.00,94.23
3126.00,94.26
3125.00,94.29
3124.00,94.32
3123.00,94.34
3122.00,94.37
3121.00,94.39
3120.00,94.42
3119.00,94.45
3118.00,94.47
3117.00,94.50
3116.00,94.52
3115.00,94.55
3114.00,94.58
3113.00,94.60
3112.00,94.63
3111.00,94.66
3110.00,94.68
3109.00,94.70
3108.00,94.72
3107.00,94.75
3106.00,94.78
3105.00,94.80
3104.00,94.83
3103.00,94.85
3102.00,94.88
3101.00,94.90
3100.00,94.92
3099.00,94.95
3098.00,94.97
3097.00,94.99
3096.00,95.01
3095.00,95.03
3094.00,95.06
3093.00,95.08
3092.00,95.10
3091.00,95.12
3090.00,95.14
3089.00,95.16
3088.00,95.18
3087.00,95.20
3086.00,95.22
3085.00,95.24
3084.00,95.27
3083.00,95.29
3082.00,95.31
3081.00,95.33
3080.00,95.35
3079.00,95.37
3078.00,95.39
3077.00,95.41
3076.00,95.43
3075.00,95.44
3074.00,95.46
3073.00,95.48
3072.00,95.50
3071.00,95.52
3070.00,95.54
3069.00,95.55
3068.00,95.57
3067.00,95.59
3066.00,95.61
3065.00,95.62
3064.00,95.64
3063.00,95.66
3062.00,95.67
3061.00,95.69
3060.00,95.71
3059.00,95.73
3058.00,95.75
3057.00,95.76
3056.00,95.78
3055.00,95.79
3054.00,95.81
3053.00,95.83
3052.00,95.84
3051.00,95.86
3050.00,95.87
3049.00,95.88
3048.00,95.90
3047.00,95.92
3046.00,95.93
3045.00,95.95
3044.00,95.96
3043.00,95.97
3042.00,95.98
3041.00,95.99
3040.00,96.00
3039.00,96.01
3038.00,96.03
3037.00,96.04
3036.00,96.06
3035.00,96.07
3034.00,96.08
3033.00,96.09
3032.00,96.10
3031.00,96.11
3030.00,96.12
3029.00,96.13
3028.00,96.15
3027.00,96.16
3026.00,96.17
3025.00,96.18
3024.00,96.19
3023.00,96.20
3022.00,96.21
3021.00,96.22
3020.00,96.23
3019.00,96.24
3018.00,96.25
3017.00,96.27
3016.00,96.28
3015.00,96.29
3014.00,96.29
3013.00,96.30
3012.00,96.31
3011.00,96.32
3010.00,96.33
3009.00,96.34
3008.00,96.35
3007.00,96.35
3006.00,96.36
3005.00,96.37
3004.00,96.38
3003.00,96.38
3002.00,96.38
3001.00,96.38
3000.00,96.38
2999.00,96.39
2998.00,96.39
2997.00,96.39
2996.00,96.38
2995.00,96.38
2994.00,96.38
2993.00,96.37
2992.00,96.37
2991.00,96.36
2990.00,96.35
2989.00,96.34
2988.00,96.34
2987.00,96.33
2986.00,96.32
2985.00,96.30
2984.00,96.29
2983.00,96.27
2982.00,96.25
2981.00,96.23
2980.00,96.21
2979.00,96.18
2978.00,96.16
2977.00,96.13
2976.00,96.10
2975.00,96.06
2974.00,96.02
2973.00,95.98
2972.00,95.93
2971.00,95.88
2970.00,95.82
2969.00,95.76
2968.00,95.69
2967.00,95.62
2966.00,95.53
2965.00,95.44
2964.00,95.34
2963.00,95.23
2962.00,95.11
2961.00,94.99
2960.00,94.86
2959.00,94.73
2958.00,94.58
2957.00,94.43
2956.00,94.27
2955.00,94.11
2954.00,93.95
2953.00,93.79
2952.00,93.63
2951.00,93.48
2950.00,93.34
2949.00,93.20
2948.00,93.08
2947.00,92.96
2946.00,92.85
2945.00,92.76
2944.00,92.69
2943.00,92.63
2942.00,92.58
2941.00,92.55
2940.00,92.52
2939.00,92.51
2938.00,92.51
2937.00,92.52
2936.00,92.53
2935.00,92.55
2934.00,92.57
2933.00,92.59
2932.00,92.62
2931.00,92.64
2930.00,92.66
2929.00,92.67
2928.00,92.67
2927.00,92.67
2926.00,92.67
2925.00,92.65
2924.00,92.63
2923.00,92.60
2922.00,92.57
2921.00,92.53
2920.00,92.49
2919.00,92.44
2918.00,92.40
2917.00,92.35
2916.00,92.30
2915.00,92.26
2914.00,92.22
2913.00,92.19
2912.00,92.17
2911.00,92.16
2910.00,92.16
2909.00,92.17
2908.00,92.19
2907.00,92.22
2906.00,92.26
2905.00,92.32
2904.00,92.39
2903.00,92.47
2902.00,92.56
2901.00,92.66
2900.00,92.76
2899.00,92.87
2898.00,92.98
2897.00,93.09
2896.00,93.20
2895.00,93.31
2894.00,93.42
2893.00,93.52
2892.00,93.61
2891.00,93.70
2890.00,93.79
2889.00,93.87
2888.00,93.95
2887.00,94.01
2886.00,94.07
2885.00,94.12
2884.00,94.17
2883.00,94.21
2882.00,94.25
2881.00,94.29
2880.00,94.32
2879.00,94.35
2878.00,94.38
2877.00,94.41
2876.00,94.43
2875.00,94.46
2874.00,94.48
2873.00,94.50
2872.00,94.52
2871.00,94.54
2870.00,94.56
2869.00,94.57
2868.00,94.59
2867.00,94.61
2866.00,94.62
2865.00,94.64
2864.00,94.65
2863.00,94.67
2862.00,94.68
2861.00,94.70
2860.00,94.72
2859.00,94.73
2858.00,94.75
2857.00,94.77
2856.00,94.78
2855.00,94.80
2854.00,94.82
2853.00,94.83
2852.00,94.85
2851.00,94.86
2850.00,94.87
2849.00,94.89
2848.00,94.90
2847.00,94.92
2846.00,94.93
2845.00,94.95
2844.00,94.96
2843.00,94.98
2842.00,95.01
2841.00,95.03
2840.00,95.05
2839.00,95.07
2838.00,95.09
2837.00,95.12
2836.00,95.14
2835.00,95.16
2834.00,95.18
2833.00,95.20
2832.00,95.22
2831.00,95.24
2830.00,95.26
2829.00,95.28
2828.00,95.30
2827.00,95.32
2826.00,95.34
2825.00,95.36
2824.00,95.39
2823.00,95.41
2822.00,95.44
2821.00,95.46
2820.00,95.48
2819.00,95.50
2818.00,95.53
2817.00,95.55
2816.00,95.58
2815.00,95.61
2814.00,95.63
2813.00,95.66
2812.00,95.68
2811.00,95.71
2810.00,95.73
2809.00,95.76
2808.00,95.78
2807.00,95.81
2806.00,95.83
2805.00,95.86
2804.00,95.88
2803.00,95.90
2802.00,95.91
2801.00,95.93
2800.00,95.95
2799.00,95.96
2798.00,95.98
2797.00,96.00
2796.00,96.02
2795.00,96.03
2794.00,96.05
2793.00,96.06
2792.00,96.07
2791.00,96.08
2790.00,96.09
2789.00,96.10
2788.00,96.11
2787.00,96.13
2786.00,96.14
2785.00,96.14
2784.00,96.15
2783.00,96.16
2782.00,96.17
2781.00,96.18
2780.00,96.19
2779.00,96.19
2778.00,96.20
2777.00,96.20
2776.00,96.21
2775.00,96.22
2774.00,96.22
2773.00,96.23
2772.00,96.23
2771.00,96.23
2770.00,96.24
2769.00,96.24
2768.00,96.24
2767.00,96.25
2766.00,96.25
2765.00,96.26
2764.00,96.26
2763.00,96.27
2762.00,96.27
2761.00,96.27
2760.00,96.28
2759.00,96.28
2758.00,96.29
2757.00,96.29
2756.00,96.30
2755.00,96.30
2754.00,96.30
2753.00,96.30
2752.00,96.31
2751.00,96.31
2750.00,96.31
2749.00,96.32
2748.00,96.32
2747.00,96.32
2746.00,96.33
2745.00,96.34
2744.00,96.34
2743.00,96.34
2742.00,96.35
2741.00,96.35
2740.00,96.35
2739.00,96.36
2738.00,96.36
2737.00,96.36
2736.00,96.37
2735.00,96.38
2734.00,96.38
2733.00,96.39
2732.00,96.39
2731.00,96.40
2730.00,96.40
2729.00,96.40
2728.00,96.41
2727.00,96.41
2726.00,96.42
2725.00,96.42
2724.00,96.42
2723.00,96.43
2722.00,96.43
2721.00,96.44
2720.00,96.44
2719.00,96.44
2718.00,96.45
2717.00,96.45
2716.00,96.45
2715.00,96.45
2714.00,96.45
2713.00,96.46
2712.00,96.46
2711.00,96.46
2710.00,96.47
2709.00,96.47
2708.00,96.47
2707.00,96.48
2706.00,96.48
2705.00,96.48
2704.00,96.48
2703.00,96.48
2702.00,96.48
2701.00,96.48
2700.00,96.48
2699.00,96.48
2698.00,96.48
2697.00,96.49
2696.00,96.48
2695.00,96.48
2694.00,96.48
2693.00,96.49
2692.00,96.49
2691.00,96.49
2690.00,96.49
2689.00,96.49
2688.00,96.49
2687.00,96.50
2686.00,96.50
2685.00,96.50
2684.00,96.50
2683.00,96.50
2682.00,96.50
2681.00,96.50
2680.00,96.51
2679.00,96.51
2678.00,96.51
2677.00,96.51
2676.00,96.51
2675.00,96.52
2674.00,96.52
2673.00,96.52
2672.00,96.52
2671.00,96.52
2670.00,96.52
2669.00,96.52
2668.00,96.53
2667.00,96.53
2666.00,96.53
2665.00,96.53
2664.00,96.53
2663.00,96.53
2662.00,96.52
2661.00,96.52
2660.00,96.51
2659.00,96.51
2658.00,96.51
2657.00,96.51
2656.00,96.51
2655.00,96.51
2654.00,96.51
2653.00,96.51
2652.00,96.51
2651.00,96.51
2650.00,96.51
2649.00,96.52
2648.00,96.52
2647.00,96.52
2646.00,96.53
2645.00,96.53
2644.00,96.53
2643.00,96.53
2642.00,96.54
2641.00,96.54
2640.00,96.54
2639.00,96.54
2638.00,96.54
2637.00,96.55
2636.00,96.55
2635.00,96.55
2634.00,96.56
2633.00,96.57
2632.00,96.57
2631.00,96.57
2630.00,96.58
2629.00,96.58
2628.00,96.58
2627.00,96.59
2626.00,96.59
2625.00,96.60
2624.00,96.60
2623.00,96.60
2622.00,96.61
2621.00,96.61
2620.00,96.62
2619.00,96.62
2618.00,96.63
2617.00,96.63
2616.00,96.63
2615.00,96.63
2614.00,96.63
2613.00,96.63
2612.00,96.64
2611.00,96.64
2610.00,96.65
2609.00,96.66
2608.00,96.66
2607.00,96.66
2606.00,96.67
2605.00,96.67
2604.00,96.68
2603.00,96.68
2602.00,96.69
2601.00,96.69
2600.00,96.70
2599.00,96.70
2598.00,96.70
2597.00,96.71
2596.00,96.71
2595.00,96.71
2594.00,96.72
2593.00,96.72
2592.00,96.73
2591.00,96.74
2590.00,96.74
2589.00,96.75
2588.00,96.75
2587.00,96.75
2586.00,96.75
2585.00,96.75
2584.00,96.75
2583.00,96.75
2582.00,96.75
2581.00,96.76
2580.00,96.76
2579.00,96.77
2578.00,96.77
2577.00,96.78
2576.00,96.78
2575.00,96.78
2574.00,96.78
2573.00,96.78
2572.00,96.78
2571.00,96.79
2570.00,96.79
2569.00,96.78
2568.00,96.78
2567.00,96.79
2566.00,96.79
2565.00,96.80
2564.00,96.80
2563.00,96.80
2562.00,96.81
2561.00,96.81
2560.00,96.80
2559.00,96.80
2558.00,96.81
2557.00,96.81
2556.00,96.81
2555.00,96.82
2554.00,96.82
2553.00,96.82
2552.00,96.83
2551.00,96.83
2550.00,96.83
2549.00,96.84
2548.00,96.84
2547.00,96.83
2546.00,96.83
2545.00,96.83
2544.00,96.83
2543.00,96.83
2542.00,96.83
2541.00,96.83
2540.00,96.83
2539.00,96.83
2538.00,96.84
2537.00,96.83
2536.00,96.83
2535.00,96.83
2534.00,96.83
2533.00,96.83
2532.00,96.84
2531.00,96.85
2530.00,96.85
2529.00,96.85
2528.00,96.85
2527.00,96.85
2526.00,96.85
2525.00,96.85
2524.00,96.85
2523.00,96.85
2522.00,96.85
2521.00,96.86
2520.00,96.86
2519.00,96.86
2518.00,96.87
2517.00,96.87
2516.00,96.87
2515.00,96.88
2514.00,96.88
2513.00,96.88
2512.00,96.88
2511.00,96.88
2510.00,96.88
2509.00,96.88
2508.00,96.89
2507.00,96.89
2506.00,96.90
2505.00,96.90
2504.00,96.90
2503.00,96.89
2502.00,96.89
2501.00,96.90
2500.00,96.90
2499.00,96.90
2498.00,96.90
2497.00,96.90
2496.00,96.90
2495.00,96.91
2494.00,96.91
2493.00,96.92
2492.00,96.92
2491.00,96.92
2490.00,96.92
2489.00,96.92
2488.00,96.92
2487.00,96.93
2486.00,96.93
2485.00,96.93
2484.00,96.94
2483.00,96.94
2482.00,96.94
2481.00,96.95
2480.00,96.95
2479.00,96.95
2478.00,96.96
2477.00,96.96
2476.00,96.96
2475.00,96.96
2474.00,96.96
2473.00,96.96
2472.00,96.96
2471.00,96.96
2470.00,96.96
2469.00,96.97
2468.00,96.97
2467.00,96.97
2466.00,96.97
2465.00,96.97
2464.00,96.97
2463.00,96.97
2462.00,96.97
2461.00,96.97
2460.00,96.97
2459.00,96.97
2458.00,96.97
2457.00,96.97
2456.00,96.97
2455.00,96.97
2454.00,96.97
2453.00,96.97
2452.00,96.97
2451.00,96.97
2450.00,96.97
2449.00,96.97
2448.00,96.97
2447.00,96.98
2446.00,96.98
2445.00,96.99
2444.00,96.99
2443.00,97.00
2442.00,97.00
2441.00,97.00
2440.00,97.00
2439.00,97.00
2438.00,97.00
2437.00,97.00
2436.00,97.00
2435.00,97.00
2434.00,97.01
2433.00,97.01
2432.00,97.02
2431.00,97.03
2430.00,97.03
2429.00,97.04
2428.00,97.04
2427.00,97.05
2426.00,97.05
2425.00,97.05
2424.00,97.05
2423.00,97.05
2422.00,97.05
2421.00,97.05
2420.00,97.05
2419.00,97.05
2418.00,97.05
2417.00,97.05
2416.00,97.05
2415.00,97.06
2414.00,97.06
2413.00,97.06
2412.00,97.06
2411.00,97.06
2410.00,97.06
2409.00,97.06
2408.00,97.06
2407.00,97.07
2406.00,97.08
2405.00,97.08
2404.00,97.08
2403.00,97.08
2402.00,97.09
2401.00,97.09
2400.00,97.10
2399.00,97.10
2398.00,97.10
2397.00,97.10
2396.00,97.11
2395.00,97.11
2394.00,97.11
2393.00,97.12
2392.00,97.12
2391.00,97.12
2390.00,97.13
2389.00,97.13
2388.00,97.13
2387.00,97.13
2386.00,97.13
2385.00,97.13
2384.00,97.13
2383.00,97.13
2382.00,97.14
2381.00,97.14
2380.00,97.14
2379.00,97.15
2378.00,97.15
2377.00,97.15
2376.00,97.15
2375.00,97.15
2374.00,97.15
2373.00,97.15
2372.00,97.15
2371.00,97.15
2370.00,97.16
2369.00,97.16
2368.00,97.16
2367.00,97.16
2366.00,97.15
2365.00,97.15
2364.00,97.16
2363.00,97.16
2362.00,97.16
2361.00,97.15
2360.00,97.15
2359.00,97.15
2358.00,97.15
2357.00,97.16
2356.00,97.16
2355.00,97.16
2354.00,97.16
2353.00,97.16
2352.00,97.16
2351.00,97.16
2350.00,97.16
2349.00,97.16
2348.00,97.16
2347.00,97.15
2346.00,97.15
2345.00,97.14
2344.00,97.14
2343.00,97.14
2342.00,97.14
2341.00,97.13
2340.00,97.12
2339.00,97.12
2338.00,97.12
2337.00,97.13
2336.00,97.14
2335.00,97.14
2334.00,97.15
2333.00,97.15
2332.00,97.16
2331.00,97.16
2330.00,97.17
2329.00,97.17
2328.00,97.15
2327.00,97.11
2326.00,97.06
2325.00,97.01
2324.00,96.98
2323.00,96.97
2322.00,96.97
2321.00,96.98
2320.00,96.99
2319.00,97.00
2318.00,97.01
2317.00,97.02
2316.00,97.03
2315.00,97.04
2314.00,97.05
2313.00,97.06
2312.00,97.06
2311.00,97.05
2310.00,97.05
2309.00,97.05
2308.00,97.04
2307.00,97.04
2306.00,97.04
2305.00,97.04
2304.00,97.04
2303.00,97.04
2302.00,97.04
2301.00,97.04
2300.00,97.04
2299.00,97.04
2298.00,97.04
2297.00,97.03
2296.00,97.03
2295.00,97.02
2294.00,97.01
2293.00,97.00
2292.00,96.99
2291.00,96.98
2290.00,96.97
2289.00,96.96
2288.00,96.95
2287.00,96.95
2286.00,96.94
2285.00,96.94
2284.00,96.94
2283.00,96.94
2282.00,96.94
2281.00,96.95
2280.00,96.96
2279.00,96.96
2278.00,96.97
2277.00,96.98
2276.00,96.98
2275.00,96.98
2274.00,96.98
2273.00,96.97
2272.00,96.97
2271.00,96.97
2270.00,96.97
2269.00,96.97
2268.00,96.97
2267.00,96.97
2266.00,96.98
2265.00,97.00
2264.00,97.01
2263.00,97.01
2262.00,97.01
2261.00,97.00
2260.00,97.00
2259.00,96.99
2258.00,96.98
2257.00,96.98
2256.00,96.98
2255.00,97.00
2254.00,97.01
2253.00,97.02
2252.00,97.02
2251.00,97.02
2250.00,97.02
2249.00,97.02
2248.00,97.01
2247.00,97.00
2246.00,96.99
2245.00,96.99
2244.00,96.99
2243.00,96.99
2242.00,96.99
2241.00,96.99
2240.00,96.99
2239.00,96.99
2238.00,96.99
2237.00,96.99
2236.00,96.99
2235.00,96.98
2234.00,96.98
2233.00,96.98
2232.00,96.97
2231.00,96.97
2230.00,96.97
2229.00,96.97
2228.00,96.97
2227.00,96.97
2226.00,96.96
2225.00,96.95
2224.00,96.94
2223.00,96.94
2222.00,96.95
2221.00,96.97
2220.00,96.98
2219.00,96.98
2218.00,96.98
2217.00,96.98
2216.00,96.97
2215.00,96.97
2214.00,96.97
2213.00,96.96
2212.00,96.95
2211.00,96.94
2210.00,96.94
2209.00,96.94
2208.00,96.93
2207.00,96.93
2206.00,96.93
2205.00,96.94
2204.00,96.94
2203.00,96.93
2202.00,96.93
2201.00,96.92
2200.00,96.91
2199.00,96.91
2198.00,96.91
2197.00,96.91
2196.00,96.91
2195.00,96.91
2194.00,96.90
2193.00,96.88
2192.00,96.87
2191.00,96.86
2190.00,96.87
2189.00,96.88
2188.00,96.88
2187.00,96.89
2186.00,96.88
2185.00,96.88
2184.00,96.87
2183.00,96.88
2182.00,96.91
2181.00,96.94
2180.00,96.95
2179.00,96.94
2178.00,96.92
2177.00,96.90
2176.00,96.89
2175.00,96.90
2174.00,96.91
2173.00,96.91
2172.00,96.89
2171.00,96.87
2170.00,96.84
2169.00,96.81
2168.00,96.77
2167.00,96.74
2166.00,96.72
2165.00,96.71
2164.00,96.69
2163.00,96.68
2162.00,96.66
2161.00,96.68
2160.00,96.76
2159.00,96.91
2158.00,97.08
2157.00,97.20
2156.00,97.24
2155.00,97.22
2154.00,97.19
2153.00,97.17
2152.00,97.16
2151.00,97.14
2150.00,97.13
2149.00,97.11
2148.00,97.11
2147.00,97.11
2146.00,97.12
2145.00,97.13
2144.00,97.14
2143.00,97.15
2142.00,97.16
2141.00,97.16
2140.00,97.15
2139.00,97.14
2138.00,97.15
2137.00,97.16
2136.00,97.19
2135.00,97.22
2134.00,97.24
2133.00,97.26
2132.00,97.27
2131.00,97.26
2130.00,97.25
2129.00,97.23
2128.00,97.21
2127.00,97.19
2126.00,97.18
2125.00,97.18
2124.00,97.17
2123.00,97.17
2122.00,97.16
2121.00,97.14
2120.00,97.13
2119.00,97.13
2118.00,97.13
2117.00,97.12
2116.00,97.10
2115.00,97.08
2114.00,97.07
2113.00,97.06
2112.00,97.06
2111.00,97.07
2110.00,97.07
2109.00,97.07
2108.00,97.07
2107.00,97.07
2106.00,97.07
2105.00,97.07
2104.00,97.07
2103.00,97.07
2102.00,97.08
2101.00,97.08
2100.00,97.07
2099.00,97.07
2098.00,97.08
2097.00,97.09
2096.00,97.11
2095.00,97.12
2094.00,97.12
2093.00,97.12
2092.00,97.12
2091.00,97.11
2090.00,97.11
2089.00,97.10
2088.00,97.09
2087.00,97.09
2086.00,97.08
2085.00,97.08
2084.00,97.08
2083.00,97.07
2082.00,97.07
2081.00,97.07
2080.00,97.06
2079.00,97.05
2078.00,97.05
2077.00,97.04
2076.00,97.04
2075.00,97.05
2074.00,97.06
2073.00,97.07
2072.00,97.07
2071.00,97.07
2070.00,97.06
2069.00,97.05
2068.00,97.04
2067.00,97.03
2066.00,97.03
2065.00,97.03
2064.00,97.04
2063.00,97.05
2062.00,97.05
2061.00,97.05
2060.00,97.05
2059.00,97.05
2058.00,97.05
2057.00,97.05
2056.00,97.05
2055.00,97.05
2054.00,97.05
2053.00,97.02
2052.00,96.98
2051.00,96.93
2050.00,96.91
2049.00,96.92
2048.00,96.94
2047.00,96.96
2046.00,96.97
2045.00,96.98
2044.00,96.99
2043.00,96.99
2042.00,96.98
2041.00,96.97
2040.00,96.95
2039.00,96.94
2038.00,96.93
2037.00,96.94
2036.00,96.96
2035.00,96.98
2034.00,97.00
2033.00,97.02
2032.00,97.02
2031.00,97.02
2030.00,97.02
2029.00,97.01
2028.00,97.02
2027.00,97.02
2026.00,97.03
2025.00,97.04
2024.00,97.05
2023.00,97.05
2022.00,97.05
2021.00,97.04
2020.00,97.04
2019.00,97.04
2018.00,97.04
2017.00,97.05
2016.00,97.05
2015.00,97.06
2014.00,97.07
2013.00,97.06
2012.00,97.05
2011.00,97.03
2010.00,97.02
2009.00,97.04
2008.00,97.08
2007.00,97.12
2006.00,97.16
2005.00,97.17
2004.00,97.17
2003.00,97.16
2002.00,97.15
2001.00,97.14
2000.00,97.13
1999.00,97.12
1998.00,97.11
1997.00,97.10
1996.00,97.09
1995.00,97.09
1994.00,97.09
1993.00,97.08
1992.00,97.08
1991.00,97.07
1990.00,97.07
1989.00,97.06
1988.00,97.04
1987.00,97.02
1986.00,97.00
1985.00,96.99
1984.00,96.97
1983.00,96.95
1982.00,96.92
1981.00,96.89
1980.00,96.88
1979.00,96.89
1978.00,96.93
1977.00,96.99
1976.00,97.03
1975.00,97.06
1974.00,97.08
1973.00,97.10
1972.00,97.11
1971.00,97.14
1970.00,97.16
1969.00,97.17
1968.00,97.16
1967.00,97.14
1966.00,97.13
1965.00,97.13
1964.00,97.14
1963.00,97.16
1962.00,97.18
1961.00,97.20
1960.00,97.22
1959.00,97.24
1958.00,97.26
1957.00,97.26
1956.00,97.25
1955.00,97.23
1954.00,97.21
1953.00,97.21
1952.00,97.20
1951.00,97.20
1950.00,97.20
1949.00,97.21
1948.00,97.23
1947.00,97.24
1946.00,97.26
1945.00,97.26
1944.00,97.26
1943.00,97.26
1942.00,97.26
1941.00,97.26
1940.00,97.26
1939.00,97.26
1938.00,97.26
1937.00,97.26
1936.00,97.26
1935.00,97.25
1934.00,97.25
1933.00,97.25
1932.00,97.25
1931.00,97.25
1930.00,97.25
1929.00,97.26
1928.00,97.26
1927.00,97.27
1926.00,97.28
1925.00,97.28
1924.00,97.29
1923.00,97.29
1922.00,97.30
1921.00,97.30
1920.00,97.30
1919.00,97.29
1918.00,97.28
1917.00,97.28
1916.00,97.28
1915.00,97.28
1914.00,97.28
1913.00,97.28
1912.00,97.28
1911.00,97.29
1910.00,97.30
1909.00,97.30
1908.00,97.30
1907.00,97.30
1906.00,97.30
1905.00,97.30
1904.00,97.29
1903.00,97.29
1902.00,97.29
1901.00,97.29
1900.00,97.30
1899.00,97.30
1898.00,97.31
1897.00,97.31
1896.00,97.31
1895.00,97.31
1894.00,97.31
1893.00,97.31
1892.00,97.31
1891.00,97.31
1890.00,97.31
1889.00,97.31
1888.00,97.31
1887.00,97.31
1886.00,97.31
1885.00,97.31
1884.00,97.32
1883.00,97.32
1882.00,97.33
1881.00,97.33
1880.00,97.34
1879.00,97.34
1878.00,97.34
1877.00,97.35
1876.00,97.35
1875.00,97.34
1874.00,97.34
1873.00,97.35
1872.00,97.35
1871.00,97.35
1870.00,97.35
1869.00,97.36
1868.00,97.37
1867.00,97.37
1866.00,97.37
1865.00,97.37
1864.00,97.37
1863.00,97.37
1862.00,97.37
1861.00,97.37
1860.00,97.36
1859.00,97.36
1858.00,97.37
1857.00,97.37
1856.00,97.37
1855.00,97.37
1854.00,97.38
1853.00,97.39
1852.00,97.39
1851.00,97.39
1850.00,97.40
1849.00,97.40
1848.00,97.40
1847.00,97.40
1846.00,97.39
1845.00,97.40
1844.00,97.40
1843.00,97.41
1842.00,97.41
1841.00,97.41
1840.00,97.41
1839.00,97.41
1838.00,97.41
1837.00,97.42
1836.00,97.41
1835.00,97.41
1834.00,97.41
1833.00,97.41
1832.00,97.41
1831.00,97.41
1830.00,97.41
1829.00,97.42
1828.00,97.42
1827.00,97.43
1826.00,97.43
1825.00,97.43
1824.00,97.44
1823.00,97.44
1822.00,97.44
1821.00,97.45
1820.00,97.45
1819.00,97.47
1818.00,97.48
1817.00,97.49
1816.00,97.50
1815.00,97.50
1814.00,97.50
1813.00,97.50
1812.00,97.50
1811.00,97.50
1810.00,97.51
1809.00,97.51
1808.00,97.51
1807.00,97.51
1806.00,97.52
1805.00,97.52
1804.00,97.53
1803.00,97.53
1802.00,97.53
1801.00,97.53
1800.00,97.54
1799.00,97.54
1798.00,97.54
1797.00,97.55
1796.00,97.55
1795.00,97.55
1794.00,97.55
1793.00,97.55
1792.00,97.55
1791.00,97.56
1790.00,97.56
1789.00,97.57
1788.00,97.57
1787.00,97.57
1786.00,97.57
1785.00,97.58
1784.00,97.58
1783.00,97.58
1782.00,97.59
1781.00,97.59
1780.00,97.59
1779.00,97.59
1778.00,97.58
1777.00,97.59
1776.00,97.59
1775.00,97.59
1774.00,97.59
1773.00,97.60
1772.00,97.59
1771.00,97.59
1770.00,97.58
1769.00,97.58
1768.00,97.57
1767.00,97.56
1766.00,97.55
1765.00,97.55
1764.00,97.53
1763.00,97.49
1762.00,97.45
1761.00,97.41
1760.00,97.36
1759.00,97.29
1758.00,97.20
1757.00,97.07
1756.00,96.92
1755.00,96.76
1754.00,96.58
1753.00,96.35
1752.00,96.04
1751.00,95.64
1750.00,95.19
1749.00,94.71
1748.00,94.21
1747.00,93.71
1746.00,93.21
1745.00,92.71
1744.00,92.19
1743.00,91.68
1742.00,91.21
1741.00,90.74
1740.00,90.27
1739.00,89.86
1738.00,89.56
1737.00,89.34
1736.00,89.14
1735.00,88.92
1734.00,88.73
1733.00,88.63
1732.00,88.60
1731.00,88.62
1730.00,88.66
1729.00,88.72
1728.00,88.79
1727.00,88.85
1726.00,88.91
1725.00,88.96
1724.00,89.00
1723.00,89.02
1722.00,89.02
1721.00,89.01
1720.00,88.99
1719.00,88.95
1718.00,88.88
1717.00,88.81
1716.00,88.77
1715.00,88.74
1714.00,88.73
1713.00,88.75
1712.00,88.80
1711.00,88.87
1710.00,88.96
1709.00,89.09
1708.00,89.25
1707.00,89.46
1706.00,89.73
1705.00,90.02
1704.00,90.28
1703.00,90.52
1702.00,90.78
1701.00,91.18
1700.00,91.65
1699.00,92.02
1698.00,92.27
1697.00,92.54
1696.00,92.87
1695.00,93.18
1694.00,93.41
1693.00,93.58
1692.00,93.75
1691.00,93.93
1690.00,94.10
1689.00,94.27
1688.00,94.40
1687.00,94.52
1686.00,94.63
1685.00,94.75
1684.00,94.88
1683.00,94.98
1682.00,95.04
1681.00,95.10
1680.00,95.15
1679.00,95.20
1678.00,95.24
1677.00,95.27
1676.00,95.30
1675.00,95.34
1674.00,95.37
1673.00,95.40
1672.00,95.41
1671.00,95.42
1670.00,95.44
1669.00,95.45
1668.00,95.47
1667.00,95.48
1666.00,95.50
1665.00,95.50
1664.00,95.51
1663.00,95.52
1662.00,95.54
1661.00,95.56
1660.00,95.57
1659.00,95.59
1658.00,95.60
1657.00,95.61
1656.00,95.62
1655.00,95.62
1654.00,95.64
1653.00,95.68
1652.00,95.71
1651.00,95.72
1650.00,95.73
1649.00,95.74
1648.00,95.76
1647.00,95.78
1646.00,95.81
1645.00,95.83
1644.00,95.86
1643.00,95.88
1642.00,95.90
1641.00,95.92
1640.00,95.94
1639.00,95.96
1638.00,95.99
1637.00,96.01
1636.00,96.04
1635.00,96.08
1634.00,96.11
1633.00,96.13
1632.00,96.15
1631.00,96.18
1630.00,96.20
1629.00,96.22
1628.00,96.25
1627.00,96.27
1626.00,96.30
1625.00,96.32
1624.00,96.35
1623.00,96.39
1622.00,96.42
1621.00,96.44
1620.00,96.47
1619.00,96.49
1618.00,96.51
1617.00,96.54
1616.00,96.56
1615.00,96.58
1614.00,96.60
1613.00,96.61
1612.00,96.63
1611.00,96.65
1610.00,96.67
1609.00,96.69
1608.00,96.71
1607.00,96.72
1606.00,96.74
1605.00,96.75
1604.00,96.77
1603.00,96.78
1602.00,96.79
1601.00,96.80
1600.00,96.81
1599.00,96.82
1598.00,96.83
1597.00,96.84
1596.00,96.84
1595.00,96.85
1594.00,96.85
1593.00,96.85
1592.00,96.85
1591.00,96.85
1590.00,96.85
1589.00,96.84
1588.00,96.84
1587.00,96.83
1586.00,96.83
1585.00,96.82
1584.00,96.82
1583.00,96.81
1582.00,96.80
1581.00,96.80
1580.00,96.79
1579.00,96.79
1578.00,96.78
1577.00,96.78
1576.00,96.77
1575.00,96.76
1574.00,96.76
1573.00,96.75
1572.00,96.75
1571.00,96.75
1570.00,96.75
1569.00,96.75
1568.00,96.75
1567.00,96.76
1566.00,96.76
1565.00,96.77
1564.00,96.77
1563.00,96.78
1562.00,96.79
1561.00,96.80
1560.00,96.81
1559.00,96.82
1558.00,96.83
1557.00,96.83
1556.00,96.84
1555.00,96.85
1554.00,96.86
1553.00,96.87
1552.00,96.87
1551.00,96.88
1550.00,96.88
1549.00,96.89
1548.00,96.89
1547.00,96.90
1546.00,96.91
1545.00,96.91
1544.00,96.92
1543.00,96.92
1542.00,96.92
1541.00,96.92
1540.00,96.92
1539.00,96.93
1538.00,96.94
1537.00,96.94
1536.00,96.93
1535.00,96.93
1534.00,96.93
1533.00,96.93
1532.00,96.93
1531.00,96.93
1530.00,96.94
1529.00,96.93
1528.00,96.93
1527.00,96.93
1526.00,96.94
1525.00,96.94
1524.00,96.93
1523.00,96.93
1522.00,96.92
1521.00,96.92
1520.00,96.91
1519.00,96.91
1518.00,96.90
1517.00,96.89
1516.00,96.88
1515.00,96.87
1514.00,96.87
1513.00,96.86
1512.00,96.85
1511.00,96.84
1510.00,96.84
1509.00,96.83
1508.00,96.80
1507.00,96.76
1506.00,96.73
1505.00,96.70
1504.00,96.69
1503.00,96.67
1502.00,96.66
1501.00,96.63
1500.00,96.59
1499.00,96.56
1498.00,96.53
1497.00,96.48
1496.00,96.43
1495.00,96.39
1494.00,96.36
1493.00,96.32
1492.00,96.27
1491.00,96.21
1490.00,96.14
1489.00,96.05
1488.00,95.97
1487.00,95.89
1486.00,95.82
1485.00,95.75
1484.00,95.67
1483.00,95.58
1482.00,95.49
1481.00,95.39
1480.00,95.28
1479.00,95.18
1478.00,95.08
1477.00,94.96
1476.00,94.84
1475.00,94.73
1474.00,94.60
1473.00,94.45
1472.00,94.29
1471.00,94.16
1470.00,94.05
1469.00,93.95
1468.00,93.83
1467.00,93.70
1466.00,93.56
1465.00,93.39
1464.00,93.24
1463.00,93.11
1462.00,92.99
1461.00,92.88
1460.00,92.77
1459.00,92.64
1458.00,92.48
1457.00,92.27
1456.00,92.09
1455.00,91.97
1454.00,91.85
1453.00,91.73
1452.00,91.60
1451.00,91.47
1450.00,91.35
1449.00,91.21
1448.00,91.06
1447.00,90.92
1446.00,90.79
1445.00,90.66
1444.00,90.54
1443.00,90.43
1442.00,90.32
1441.00,90.21
1440.00,90.12
1439.00,90.03
1438.00,89.93
1437.00,89.82
1436.00,89.72
1435.00,89.66
1434.00,89.61
1433.00,89.56
1432.00,89.51
1431.00,89.48
1430.00,89.45
1429.00,89.43
1428.00,89.42
1427.00,89.42
1426.00,89.44
1425.00,89.45
1424.00,89.47
1423.00,89.51
1422.00,89.54
1421.00,89.57
1420.00,89.61
1419.00,89.69
1418.00,89.76
1417.00,89.82
1416.00,89.88
1415.00,89.95
1414.00,90.02
1413.00,90.10
1412.00,90.17
1411.00,90.26
1410.00,90.36
1409.00,90.45
1408.00,90.54
1407.00,90.64
1406.00,90.75
1405.00,90.87
1404.00,91.00
1403.00,91.12
1402.00,91.23
1401.00,91.34
1400.00,91.46
1399.00,91.59
1398.00,91.70
1397.00,91.79
1396.00,91.88
1395.00,91.95
1394.00,92.00
1393.00,92.03
1392.00,92.02
1391.00,91.99
1390.00,91.92
1389.00,91.82
1388.00,91.65
1387.00,91.44
1386.00,91.20
1385.00,90.94
1384.00,90.66
1383.00,90.35
1382.00,90.02
1381.00,89.69
1380.00,89.36
1379.00,89.04
1378.00,88.76
1377.00,88.52
1376.00,88.32
1375.00,88.17
1374.00,88.08
1373.00,88.06
1372.00,88.10
1371.00,88.18
1370.00,88.31
1369.00,88.47
1368.00,88.64
1367.00,88.81
1366.00,88.98
1365.00,89.14
1364.00,89.31
1363.00,89.49
1362.00,89.66
1361.00,89.81
1360.00,89.95
1359.00,90.10
1358.00,90.24
1357.00,90.38
1356.00,90.51
1355.00,90.64
1354.00,90.75
1353.00,90.84
1352.00,90.92
1351.00,90.99
1350.00,91.03
1349.00,91.06
1348.00,91.07
1347.00,91.07
1346.00,91.06
1345.00,91.03
1344.00,91.00
1343.00,90.96
1342.00,90.91
1341.00,90.86
1340.00,90.80
1339.00,90.73
1338.00,90.66
1337.00,90.60
1336.00,90.54
1335.00,90.49
1334.00,90.45
1333.00,90.41
1332.00,90.37
1331.00,90.33
1330.00,90.30
1329.00,90.27
1328.00,90.25
1327.00,90.23
1326.00,90.22
1325.00,90.22
1324.00,90.22
1323.00,90.23
1322.00,90.24
1321.00,90.25
1320.00,90.27
1319.00,90.29
1318.00,90.32
1317.00,90.36
1316.00,90.40
1315.00,90.45
1314.00,90.50
1313.00,90.55
1312.00,90.60
1311.00,90.65
1310.00,90.71
1309.00,90.76
1308.00,90.81
1307.00,90.86
1306.00,90.91
1305.00,90.95
1304.00,90.98
1303.00,91.01
1302.00,91.04
1301.00,91.06
1300.00,91.07
1299.00,91.07
1298.00,91.07
1297.00,91.05
1296.00,91.02
1295.00,90.98
1294.00,90.92
1293.00,90.84
1292.00,90.75
1291.00,90.63
1290.00,90.51
1289.00,90.36
1288.00,90.20
1287.00,90.02
1286.00,89.82
1285.00,89.60
1284.00,89.37
1283.00,89.13
1282.00,88.88
1281.00,88.62
1280.00,88.35
1279.00,88.08
1278.00,87.80
1277.00,87.53
1276.00,87.26
1275.00,86.99
1274.00,86.73
1273.00,86.47
1272.00,86.21
1271.00,85.97
1270.00,85.75
1269.00,85.53
1268.00,85.32
1267.00,85.13
1266.00,84.95
1265.00,84.79
1264.00,84.63
1263.00,84.49
1262.00,84.36
1261.00,84.24
1260.00,84.12
1259.00,84.03
1258.00,83.95
1257.00,83.87
1256.00,83.80
1255.00,83.72
1254.00,83.66
1253.00,83.59
1252.00,83.52
1251.00,83.46
1250.00,83.40
1249.00,83.34
1248.00,83.27
1247.00,83.20
1246.00,83.14
1245.00,83.07
1244.00,83.01
1243.00,82.96
1242.00,82.92
1241.00,82.89
1240.00,82.87
1239.00,82.87
1238.00,82.89
1237.00,82.94
1236.00,83.00
1235.00,83.11
1234.00,83.25
1233.00,83.43
1232.00,83.63
1231.00,83.87
1230.00,84.14
1229.00,84.44
1228.00,84.75
1227.00,85.08
1226.00,85.43
1225.00,85.78
1224.00,86.13
1223.00,86.49
1222.00,86.85
1221.00,87.21
1220.00,87.55
1219.00,87.87
1218.00,88.19
1217.00,88.48
1216.00,88.76
1215.00,89.02
1214.00,89.27
1213.00,89.50
1212.00,89.72
1211.00,89.93
1210.00,90.13
1209.00,90.31
1208.00,90.48
1207.00,90.65
1206.00,90.80
1205.00,90.95
1204.00,91.08
1203.00,91.22
1202.00,91.35
1201.00,91.47
1200.00,91.59
1199.00,91.70
1198.00,91.81
1197.00,91.91
1196.00,92.01
1195.00,92.10
1194.00,92.19
1193.00,92.27
1192.00,92.34
1191.00,92.41
1190.00,92.48
1189.00,92.55
1188.00,92.61
1187.00,92.67
1186.00,92.73
1185.00,92.78
1184.00,92.83
1183.00,92.88
1182.00,92.93
1181.00,92.98
1180.00,93.03
1179.00,93.08
1178.00,93.13
1177.00,93.17
1176.00,93.22
1175.00,93.26
1174.00,93.30
1173.00,93.35
1172.00,93.39
1171.00,93.43
1170.00,93.48
1169.00,93.53
1168.00,93.58
1167.00,93.63
1166.00,93.67
1165.00,93.72
1164.00,93.76
1163.00,93.80
1162.00,93.84
1161.00,93.87
1160.00,93.88
1159.00,93.88
1158.00,93.84
1157.00,93.78
1156.00,93.66
1155.00,93.49
1154.00,93.24
1153.00,92.91
1152.00,92.50
1151.00,92.00
1150.00,91.44
1149.00,90.82
1148.00,90.17
1147.00,89.53
1146.00,88.93
1145.00,88.40
1144.00,87.98
1143.00,87.66
1142.00,87.47
1141.00,87.36
1140.00,87.33
1139.00,87.34
1138.00,87.37
1137.00,87.40
1136.00,87.41
1135.00,87.41
1134.00,87.38
1133.00,87.35
1132.00,87.30
1131.00,87.26
1130.00,87.21
1129.00,87.17
1128.00,87.11
1127.00,87.06
1126.00,87.02
1125.00,86.97
1124.00,86.92
1123.00,86.87
1122.00,86.82
1121.00,86.75
1120.00,86.68
1119.00,86.60
1118.00,86.52
1117.00,86.43
1116.00,86.33
1115.00,86.21
1114.00,86.08
1113.00,85.92
1112.00,85.73
1111.00,85.51
1110.00,85.27
1109.00,84.99
1108.00,84.68
1107.00,84.35
1106.00,83.99
1105.00,83.62
1104.00,83.24
1103.00,82.87
1102.00,82.52
1101.00,82.19
1100.00,81.86
1099.00,81.57
1098.00,81.30
1097.00,81.05
1096.00,80.82
1095.00,80.63
1094.00,80.48
1093.00,80.35
1092.00,80.23
1091.00,80.15
1090.00,80.09
1089.00,80.04
1088.00,80.01
1087.00,80.00
1086.00,80.02
1085.00,80.05
1084.00,80.09
1083.00,80.16
1082.00,80.24
1081.00,80.33
1080.00,80.40
1079.00,80.49
1078.00,80.57
1077.00,80.65
1076.00,80.73
1075.00,80.81
1074.00,80.90
1073.00,80.99
1072.00,81.06
1071.00,81.13
1070.00,81.20
1069.00,81.27
1068.00,81.32
1067.00,81.39
1066.00,81.46
1065.00,81.53
1064.00,81.60
1063.00,81.68
1062.00,81.76
1061.00,81.82
1060.00,81.88
1059.00,81.93
1058.00,81.99
1057.00,82.03
1056.00,82.06
1055.00,82.07
1054.00,82.07
1053.00,82.06
1052.00,82.04
1051.00,82.02
1050.00,82.00
1049.00,81.97
1048.00,81.95
1047.00,81.94
1046.00,81.95
1045.00,81.96
1044.00,81.98
1043.00,82.00
1042.00,82.04
1041.00,82.08
1040.00,82.10
1039.00,82.12
1038.00,82.13
1037.00,82.12
1036.00,82.08
1035.00,82.02
1034.00,81.94
1033.00,81.84
1032.00,81.70
1031.00,81.55
1030.00,81.39
1029.00,81.22
1028.00,81.05
1027.00,80.87
1026.00,80.71
1025.00,80.56
1024.00,80.43
1023.00,80.34
1022.00,80.30
1021.00,80.32
1020.00,80.39
1019.00,80.52
1018.00,80.72
1017.00,80.95
1016.00,81.22
1015.00,81.53
1014.00,81.86
1013.00,82.22
1012.00,82.57
1011.00,82.92
1010.00,83.27
1009.00,83.59
1008.00,83.90
1007.00,84.20
1006.00,84.49
1005.00,84.76
1004.00,85.01
1003.00,85.25
1002.00,85.47
1001.00,85.68
1000.00,85.88
999.00,86.07
998.00,86.26
997.00,86.43
996.00,86.60
995.00,86.76
994.00,86.91
993.00,87.05
992.00,87.18
991.00,87.30
990.00,87.43
989.00,87.55
988.00,87.67
987.00,87.79
986.00,87.90
985.00,88.02
984.00,88.12
983.00,88.22
982.00,88.33
981.00,88.42
980.00,88.52
979.00,88.61
978.00,88.70
977.00,88.78
976.00,88.85
975.00,88.92
974.00,88.99
973.00,89.05
972.00,89.11
971.00,89.16
970.00,89.22
969.00,89.26
968.00,89.29
967.00,89.33
966.00,89.35
965.00,89.36
964.00,89.37
963.00,89.37
962.00,89.37
961.00,89.36
960.00,89.33
959.00,89.29
958.00,89.24
957.00,89.17
956.00,89.07
955.00,88.96
954.00,88.84
953.00,88.70
952.00,88.57
951.00,88.44
950.00,88.32
949.00,88.22
948.00,88.14
947.00,88.09
946.00,88.06
945.00,88.06
944.00,88.08
943.00,88.12
942.00,88.18
941.00,88.25
940.00,88.32
939.00,88.40
938.00,88.47
937.00,88.55
936.00,88.64
935.00,88.73
934.00,88.81
933.00,88.88
932.00,88.94
931.00,89.00
930.00,89.05
929.00,89.10
928.00,89.15
927.00,89.19
926.00,89.24
925.00,89.29
924.00,89.32
923.00,89.35
922.00,89.39
921.00,89.41
920.00,89.43
919.00,89.45
918.00,89.47
917.00,89.50
916.00,89.54
915.00,89.59
914.00,89.64
913.00,89.69
912.00,89.74
911.00,89.80
910.00,89.86
909.00,89.91
908.00,89.96
907.00,90.02
906.00,90.07
905.00,90.13
904.00,90.19
903.00,90.23
902.00,90.27
901.00,90.30
900.00,90.34
899.00,90.37
898.00,90.41
897.00,90.43
896.00,90.46
895.00,90.49
894.00,90.53
893.00,90.57
892.00,90.62
891.00,90.68
890.00,90.74
889.00,90.80
888.00,90.87
887.00,90.96
886.00,91.05
885.00,91.13
884.00,91.21
883.00,91.29
882.00,91.37
881.00,91.46
880.00,91.54
879.00,91.63
878.00,91.71
877.00,91.77
876.00,91.81
875.00,91.82
874.00,91.81
873.00,91.76
872.00,91.67
871.00,91.54
870.00,91.36
869.00,91.13
868.00,90.86
867.00,90.56
866.00,90.23
865.00,89.87
864.00,89.49
863.00,89.09
862.00,88.68
861.00,88.27
860.00,87.87
859.00,87.49
858.00,87.13
857.00,86.79
856.00,86.48
855.00,86.20
854.00,85.95
853.00,85.72
852.00,85.52
851.00,85.33
850.00,85.17
849.00,85.03
848.00,84.91
847.00,84.81
846.00,84.74
845.00,84.69
844.00,84.65
843.00,84.63
842.00,84.63
841.00,84.63
840.00,84.63
839.00,84.63
838.00,84.64
837.00,84.65
836.00,84.65
835.00,84.66
834.00,84.68
833.00,84.70
832.00,84.71
831.00,84.74
830.00,84.77
829.00,84.80
828.00,84.83
827.00,84.87
826.00,84.92
825.00,84.97
824.00,85.02
823.00,85.07
822.00,85.13
821.00,85.19
820.00,85.27
819.00,85.38
818.00,85.51
817.00,85.65
816.00,85.81
815.00,85.99
814.00,86.18
813.00,86.39
812.00,86.59
811.00,86.80
810.00,87.00
809.00,87.19
808.00,87.35
807.00,87.49
806.00,87.62
805.00,87.74
804.00,87.83
803.00,87.92
802.00,88.00
801.00,88.07
800.00,88.13
799.00,88.19
798.00,88.24
797.00,88.28
796.00,88.32
795.00,88.37
794.00,88.44
793.00,88.50
792.00,88.55
791.00,88.61
790.00,88.67
789.00,88.74
788.00,88.81
787.00,88.87
786.00,88.93
785.00,88.97
784.00,88.99
783.00,89.01
782.00,89.01
781.00,89.00
780.00,88.99
779.00,88.98
778.00,88.98
777.00,88.98
776.00,88.96
775.00,88.93
774.00,88.89
773.00,88.85
772.00,88.80
771.00,88.77
770.00,88.75
769.00,88.73
768.00,88.70
767.00,88.66
766.00,88.61
765.00,88.56
764.00,88.52
763.00,88.49
762.00,88.47
761.00,88.46
760.00,88.43
759.00,88.39
758.00,88.34
757.00,88.29
756.00,88.23
755.00,88.18
754.00,88.14
753.00,88.09
752.00,88.05
751.00,88.00
750.00,87.95
749.00,87.89
748.00,87.83
747.00,87.78
746.00,87.74
745.00,87.69
744.00,87.63
743.00,87.58
742.00,87.54
741.00,87.49
740.00,87.44
739.00,87.39
738.00,87.34
737.00,87.27
736.00,87.21
735.00,87.15
734.00,87.11
733.00,87.07
732.00,87.02
731.00,86.97
730.00,86.92
729.00,86.86
728.00,86.79
727.00,86.72
726.00,86.66
725.00,86.60
724.00,86.54
723.00,86.49
722.00,86.44
721.00,86.39
720.00,86.33
719.00,86.27
718.00,86.21
717.00,86.15
716.00,86.08
715.00,86.02
714.00,85.99
713.00,85.95
712.00,85.90
711.00,85.85
710.00,85.80
709.00,85.74
708.00,85.68
707.00,85.63
706.00,85.58
705.00,85.54
704.00,85.48
703.00,85.42
702.00,85.36
701.00,85.28
700.00,85.20
699.00,85.14
698.00,85.09
697.00,85.04
696.00,84.97
695.00,84.91
694.00,84.86
693.00,84.79
692.00,84.71
691.00,84.64
690.00,84.58
689.00,84.52
688.00,84.46
687.00,84.40
686.00,84.35
685.00,84.28
684.00,84.20
683.00,84.12
682.00,84.07
681.00,84.01
680.00,83.94
679.00,83.87
678.00,83.81
677.00,83.74
676.00,83.66
675.00,83.59
674.00,83.53
673.00,83.46
672.00,83.38
671.00,83.32
670.00,83.27
669.00,83.17
668.00,83.00
667.00,82.89
666.00,82.86
665.00,82.84
664.00,82.80
663.00,82.76
662.00,82.71
661.00,82.63
660.00,82.53
659.00,82.45
658.00,82.39
657.00,82.32
656.00,82.24
655.00,82.17
654.00,82.14
653.00,82.09
652.00,82.00
651.00,81.92
650.00,81.86
