Created as New Dataset,PVOH MW 130K
cm-1,%T
4000.00,99.08
3999.00,99.08
3998.00,99.08
3997.00,99.08
3996.00,99.08
3995.00,99.08
3994.00,99.08
3993.00,99.08
3992.00,99.08
3991.00,99.08
3990.00,99.08
3989.00,99.08
3988.00,99.08
3987.00,99.08
3986.00,99.08
3985.00,99.08
3984.00,99.08
3983.00,99.08
3982.00,99.08
3981.00,99.09
3980.00,99.09
3979.00,99.09
3978.00,99.09
3977.00,99.09
3976.00,99.09
3975.00,99.08
3974.00,99.08
3973.00,99.08
3972.00,99.09
3971.00,99.09
3970.00,99.09
3969.00,99.09
3968.00,99.09
3967.00,99.08
3966.00,99.08
3965.00,99.09
3964.00,99.09
3963.00,99.09
3962.00,99.09
3961.00,99.10
3960.00,99.10
3959.00,99.10
3958.00,99.10
3957.00,99.09
3956.00,99.09
3955.00,99.09
3954.00,99.09
3953.00,99.09
3952.00,99.09
3951.00,99.10
3950.00,99.10
3949.00,99.10
3948.00,99.10
3947.00,99.10
3946.00,99.10
3945.00,99.11
3944.00,99.11
3943.00,99.11
3942.00,99.11
3941.00,99.11
3940.00,99.11
3939.00,99.10
3938.00,99.10
3937.00,99.11
3936.00,99.11
3935.00,99.11
3934.00,99.11
3933.00,99.11
3932.00,99.12
3931.00,99.12
3930.00,99.12
3929.00,99.12
3928.00,99.12
3927.00,99.12
3926.00,99.12
3925.00,99.12
3924.00,99.12
3923.00,99.12
3922.00,99.12
3921.00,99.12
3920.00,99.12
3919.00,99.13
3918.00,99.13
3917.00,99.13
3916.00,99.13
3915.00,99.13
3914.00,99.13
3913.00,99.12
3912.00,99.12
3911.00,99.12
3910.00,99.12
3909.00,99.12
3908.00,99.12
3907.00,99.12
3906.00,99.13
3905.00,99.13
3904.00,99.13
3903.00,99.14
3902.00,99.14
3901.00,99.13
3900.00,99.13
3899.00,99.13
3898.00,99.13
3897.00,99.13
3896.00,99.13
3895.00,99.13
3894.00,99.13
3893.00,99.13
3892.00,99.13
3891.00,99.13
3890.00,99.13
3889.00,99.13
3888.00,99.12
3887.00,99.12
3886.00,99.12
3885.00,99.12
3884.00,99.13
3883.00,99.13
3882.00,99.13
3881.00,99.13
3880.00,99.13
3879.00,99.14
3878.00,99.14
3877.00,99.13
3876.00,99.12
3875.00,99.12
3874.00,99.12
3873.00,99.12
3872.00,99.12
3871.00,99.12
3870.00,99.12
3869.00,99.13
3868.00,99.13
3867.00,99.12
3866.00,99.12
3865.00,99.12
3864.00,99.12
3863.00,99.13
3862.00,99.13
3861.00,99.13
3860.00,99.13
3859.00,99.13
3858.00,99.13
3857.00,99.13
3856.00,99.14
3855.00,99.14
3854.00,99.13
3853.00,99.13
3852.00,99.14
3851.00,99.14
3850.00,99.13
3849.00,99.13
3848.00,99.13
3847.00,99.13
3846.00,99.13
3845.00,99.13
3844.00,99.13
3843.00,99.13
3842.00,99.14
3841.00,99.14
3840.00,99.14
3839.00,99.13
3838.00,99.13
3837.00,99.13
3836.00,99.13
3835.00,99.12
3834.00,99.12
3833.00,99.12
3832.00,99.12
3831.00,99.13
3830.00,99.13
3829.00,99.13
3828.00,99.12
3827.00,99.12
3826.00,99.12
3825.00,99.13
3824.00,99.13
3823.00,99.12
3822.00,99.12
3821.00,99.12
3820.00,99.13
3819.00,99.13
3818.00,99.13
3817.00,99.13
3816.00,99.12
3815.00,99.12
3814.00,99.13
3813.00,99.13
3812.00,99.13
3811.00,99.13
3810.00,99.13
3809.00,99.13
3808.00,99.13
3807.00,99.13
3806.00,99.13
3805.00,99.13
3804.00,99.12
3803.00,99.12
3802.00,99.11
3801.00,99.11
3800.00,99.11
3799.00,99.11
3798.00,99.11
3797.00,99.11
3796.00,99.11
3795.00,99.12
3794.00,99.12
3793.00,99.11
3792.00,99.11
3791.00,99.11
3790.00,99.11
3789.00,99.11
3788.00,99.11
3787.00,99.11
3786.00,99.11
3785.00,99.11
3784.00,99.11
3783.00,99.11
3782.00,99.11
3781.00,99.11
3780.00,99.11
3779.00,99.11
3778.00,99.11
3777.00,99.11
3776.00,99.11
3775.00,99.11
3774.00,99.11
3773.00,99.11
3772.00,99.11
3771.00,99.11
3770.00,99.11
3769.00,99.11
3768.00,99.10
3767.00,99.10
3766.00,99.10
3765.00,99.10
3764.00,99.11
3763.00,99.11
3762.00,99.11
3761.00,99.11
3760.00,99.10
3759.00,99.10
3758.00,99.10
3757.00,99.10
3756.00,99.11
3755.00,99.11
3754.00,99.11
3753.00,99.10
3752.00,99.10
3751.00,99.09
3750.00,99.10
3749.00,99.10
3748.00,99.11
3747.00,99.11
3746.00,99.10
3745.00,99.10
3744.00,99.11
3743.00,99.12
3742.00,99.12
3741.00,99.12
3740.00,99.11
3739.00,99.11
3738.00,99.12
3737.00,99.12
3736.00,99.12
3735.00,99.13
3734.00,99.13
3733.00,99.14
3732.00,99.14
3731.00,99.14
3730.00,99.14
3729.00,99.14
3728.00,99.13
3727.00,99.13
3726.00,99.13
3725.00,99.13
3724.00,99.13
3723.00,99.13
3722.00,99.13
3721.00,99.13
3720.00,99.13
3719.00,99.12
3718.00,99.12
3717.00,99.12
3716.00,99.12
3715.00,99.12
3714.00,99.11
3713.00,99.11
3712.00,99.11
3711.00,99.11
3710.00,99.11
3709.00,99.11
3708.00,99.11
3707.00,99.11
3706.00,99.11
3705.00,99.12
3704.00,99.12
3703.00,99.12
3702.00,99.12
3701.00,99.12
3700.00,99.12
3699.00,99.12
3698.00,99.12
3697.00,99.11
3696.00,99.11
3695.00,99.11
3694.00,99.10
3693.00,99.10
3692.00,99.09
3691.00,99.08
3690.00,99.07
3689.00,99.06
3688.00,99.06
3687.00,99.06
3686.00,99.06
3685.00,99.06
3684.00,99.05
3683.00,99.05
3682.00,99.04
3681.00,99.04
3680.00,99.04
3679.00,99.04
3678.00,99.04
3677.00,99.03
3676.00,99.02
3675.00,99.01
3674.00,99.01
3673.00,99.00
3672.00,98.99
3671.00,98.97
3670.00,98.96
3669.00,98.96
3668.00,98.95
3667.00,98.95
3666.00,98.94
3665.00,98.93
3664.00,98.92
3663.00,98.91
3662.00,98.90
3661.00,98.89
3660.00,98.88
3659.00,98.87
3658.00,98.86
3657.00,98.85
3656.00,98.83
3655.00,98.82
3654.00,98.82
3653.00,98.81
3652.00,98.80
3651.00,98.79
3650.00,98.77
3649.00,98.75
3648.00,98.74
3647.00,98.73
3646.00,98.72
3645.00,98.70
3644.00,98.68
3643.00,98.67
3642.00,98.65
3641.00,98.64
3640.00,98.63
3639.00,98.61
3638.00,98.60
3637.00,98.59
3636.00,98.57
3635.00,98.55
3634.00,98.54
3633.00,98.53
3632.00,98.51
3631.00,98.49
3630.00,98.46
3629.00,98.43
3628.00,98.40
3627.00,98.38
3626.00,98.36
3625.00,98.33
3624.00,98.31
3623.00,98.30
3622.00,98.28
3621.00,98.26
3620.00,98.23
3619.00,98.21
3618.00,98.18
3617.00,98.15
3616.00,98.13
3615.00,98.10
3614.00,98.07
3613.00,98.04
3612.00,98.02
3611.00,97.99
3610.00,97.97
3609.00,97.94
3608.00,97.91
3607.00,97.89
3606.00,97.86
3605.00,97.84
3604.00,97.82
3603.00,97.79
3602.00,97.76
3601.00,97.73
3600.00,97.69
3599.00,97.66
3598.00,97.63
3597.00,97.60
3596.00,97.56
3595.00,97.53
3594.00,97.50
3593.00,97.47
3592.00,97.45
3591.00,97.43
3590.00,97.40
3589.00,97.36
3588.00,97.31
3587.00,97.25
3586.00,97.21
3585.00,97.17
3584.00,97.14
3583.00,97.10
3582.00,97.06
3581.00,97.03
3580.00,96.99
3579.00,96.95
3578.00,96.91
3577.00,96.87
3576.00,96.82
3575.00,96.78
3574.00,96.73
3573.00,96.69
3572.00,96.66
3571.00,96.62
3570.00,96.59
3569.00,96.55
3568.00,96.49
3567.00,96.42
3566.00,96.36
3565.00,96.31
3564.00,96.26
3563.00,96.22
3562.00,96.17
3561.00,96.12
3560.00,96.07
3559.00,96.02
3558.00,95.97
3557.00,95.92
3556.00,95.87
3555.00,95.82
3554.00,95.77
3553.00,95.71
3552.00,95.65
3551.00,95.60
3550.00,95.55
3549.00,95.50
3548.00,95.45
3547.00,95.39
3546.00,95.32
3545.00,95.25
3544.00,95.19
3543.00,95.13
3542.00,95.07
3541.00,95.02
3540.00,94.97
3539.00,94.91
3538.00,94.85
3537.00,94.78
3536.00,94.71
3535.00,94.65
3534.00,94.60
3533.00,94.54
3532.00,94.48
3531.00,94.42
3530.00,94.36
3529.00,94.29
3528.00,94.22
3527.00,94.15
3526.00,94.09
3525.00,94.02
3524.00,93.96
3523.00,93.89
3522.00,93.82
3521.00,93.76
3520.00,93.69
3519.00,93.62
3518.00,93.56
3517.00,93.49
3516.00,93.43
3515.00,93.36
3514.00,93.30
3513.00,93.24
3512.00,93.18
3511.00,93.11
3510.00,93.03
3509.00,92.96
3508.00,92.90
3507.00,92.83
3506.00,92.77
3505.00,92.71
3504.00,92.63
3503.00,92.55
3502.00,92.47
3501.00,92.40
3500.00,92.34
3499.00,92.28
3498.00,92.21
3497.00,92.14
3496.00,92.07
3495.00,92.00
3494.00,91.93
3493.00,91.87
3492.00,91.80
3491.00,91.74
3490.00,91.67
3489.00,91.60
3488.00,91.53
3487.00,91.45
3486.00,91.39
3485.00,91.32
3484.00,91.25
3483.00,91.18
3482.00,91.11
3481.00,91.03
3480.00,90.96
3479.00,90.89
3478.00,90.83
3477.00,90.77
3476.00,90.70
3475.00,90.63
3474.00,90.56
3473.00,90.49
3472.00,90.42
3471.00,90.36
3470.00,90.29
3469.00,90.23
3468.00,90.16
3467.00,90.09
3466.00,90.02
3465.00,89.95
3464.00,89.88
3463.00,89.81
3462.00,89.74
3461.00,89.68
3460.00,89.61
3459.00,89.54
3458.00,89.47
3457.00,89.40
3456.00,89.33
3455.00,89.26
3454.00,89.20
3453.00,89.13
3452.00,89.07
3451.00,89.01
3450.00,88.95
3449.00,88.89
3448.00,88.82
3447.00,88.74
3446.00,88.67
3445.00,88.60
3444.00,88.54
3443.00,88.48
3442.00,88.41
3441.00,88.34
3440.00,88.28
3439.00,88.22
3438.00,88.17
3437.00,88.11
3436.00,88.05
3435.00,87.98
3434.00,87.92
3433.00,87.86
3432.00,87.79
3431.00,87.73
3430.00,87.66
3429.00,87.60
3428.00,87.54
3427.00,87.48
3426.00,87.42
3425.00,87.37
3424.00,87.31
3423.00,87.24
3422.00,87.18
3421.00,87.11
3420.00,87.04
3419.00,86.98
3418.00,86.93
3417.00,86.88
3416.00,86.82
3415.00,86.77
3414.00,86.72
3413.00,86.66
3412.00,86.60
3411.00,86.54
3410.00,86.49
3409.00,86.43
3408.00,86.38
3407.00,86.33
3406.00,86.28
3405.00,86.23
3404.00,86.18
3403.00,86.13
3402.00,86.08
3401.00,86.03
3400.00,85.97
3399.00,85.93
3398.00,85.88
3397.00,85.83
3396.00,85.78
3395.00,85.74
3394.00,85.69
3393.00,85.65
3392.00,85.59
3391.00,85.55
3390.00,85.50
3389.00,85.46
3388.00,85.43
3387.00,85.39
3386.00,85.35
3385.00,85.30
3384.00,85.26
3383.00,85.21
3382.00,85.18
3381.00,85.14
3380.00,85.11
3379.00,85.07
3378.00,85.04
3377.00,85.00
3376.00,84.96
3375.00,84.93
3374.00,84.90
3373.00,84.86
3372.00,84.83
3371.00,84.80
3370.00,84.77
3369.00,84.73
3368.00,84.70
3367.00,84.67
3366.00,84.64
3365.00,84.61
3364.00,84.58
3363.00,84.56
3362.00,84.54
3361.00,84.51
3360.00,84.49
3359.00,84.46
3358.00,84.44
3357.00,84.42
3356.00,84.39
3355.00,84.37
3354.00,84.34
3353.00,84.32
3352.00,84.31
3351.00,84.29
3350.00,84.27
3349.00,84.25
3348.00,84.23
3347.00,84.21
3346.00,84.19
3345.00,84.18
3344.00,84.16
3343.00,84.15
3342.00,84.14
3341.00,84.12
3340.00,84.11
3339.00,84.10
3338.00,84.09
3337.00,84.08
3336.00,84.06
3335.00,84.05
3334.00,84.04
3333.00,84.03
3332.00,84.02
3331.00,84.02
3330.00,84.01
3329.00,84.01
3328.00,84.00
3327.00,83.99
3326.00,83.98
3325.00,83.98
3324.00,83.97
3323.00,83.97
3322.00,83.97
3321.00,83.97
3320.00,83.97
3319.00,83.97
3318.00,83.96
3317.00,83.96
3316.00,83.96
3315.00,83.96
3314.00,83.95
3313.00,83.95
3312.00,83.95
3311.00,83.95
3310.00,83.95
3309.00,83.95
3308.00,83.95
3307.00,83.96
3306.00,83.96
3305.00,83.97
3304.00,83.98
3303.00,83.99
3302.00,83.99
3301.00,84.00
3300.00,84.01
3299.00,84.02
3298.00,84.02
3297.00,84.02
3296.00,84.03
3295.00,84.04
3294.00,84.05
3293.00,84.07
3292.00,84.08
3291.00,84.09
3290.00,84.10
3289.00,84.11
3288.00,84.13
3287.00,84.14
3286.00,84.16
3285.00,84.17
3284.00,84.19
3283.00,84.21
3282.00,84.22
3281.00,84.24
3280.00,84.26
3279.00,84.28
3278.00,84.30
3277.00,84.32
3276.00,84.33
3275.00,84.35
3274.00,84.36
3273.00,84.38
3272.00,84.40
3271.00,84.43
3270.00,84.46
3269.00,84.49
3268.00,84.52
3267.00,84.54
3266.00,84.57
3265.00,84.60
3264.00,84.63
3263.00,84.65
3262.00,84.68
3261.00,84.71
3260.00,84.73
3259.00,84.77
3258.00,84.80
3257.00,84.83
3256.00,84.87
3255.00,84.90
3254.00,84.93
3253.00,84.96
3252.00,85.00
3251.00,85.03
3250.00,85.07
3249.00,85.11
3248.00,85.15
3247.00,85.19
3246.00,85.22
3245.00,85.26
3244.00,85.30
3243.00,85.34
3242.00,85.39
3241.00,85.43
3240.00,85.47
3239.00,85.52
3238.00,85.56
3237.00,85.60
3236.00,85.64
3235.00,85.68
3234.00,85.73
3233.00,85.78
3232.00,85.83
3231.00,85.87
3230.00,85.92
3229.00,85.97
3228.00,86.02
3227.00,86.06
3226.00,86.11
3225.00,86.17
3224.00,86.22
3223.00,86.28
3222.00,86.33
3221.00,86.38
3220.00,86.43
3219.00,86.48
3218.00,86.54
3217.00,86.59
3216.00,86.64
3215.00,86.70
3214.00,86.76
3213.00,86.81
3212.00,86.87
3211.00,86.93
3210.00,86.98
3209.00,87.04
3208.00,87.09
3207.00,87.15
3206.00,87.21
3205.00,87.28
3204.00,87.34
3203.00,87.40
3202.00,87.47
3201.00,87.53
3200.00,87.59
3199.00,87.65
3198.00,87.71
3197.00,87.77
3196.00,87.83
3195.00,87.89
3194.00,87.96
3193.00,88.02
3192.00,88.08
3191.00,88.14
3190.00,88.21
3189.00,88.27
3188.00,88.34
3187.00,88.41
3186.00,88.47
3185.00,88.53
3184.00,88.59
3183.00,88.66
3182.00,88.72
3181.00,88.79
3180.00,88.85
3179.00,88.92
3178.00,88.98
3177.00,89.04
3176.00,89.11
3175.00,89.17
3174.00,89.24
3173.00,89.31
3172.00,89.38
3171.00,89.44
3170.00,89.51
3169.00,89.57
3168.00,89.63
3167.00,89.70
3166.00,89.76
3165.00,89.82
3164.00,89.89
3163.00,89.95
3162.00,90.02
3161.00,90.08
3160.00,90.15
3159.00,90.21
3158.00,90.27
3157.00,90.33
3156.00,90.39
3155.00,90.46
3154.00,90.52
3153.00,90.59
3152.00,90.65
3151.00,90.71
3150.00,90.77
3149.00,90.84
3148.00,90.90
3147.00,90.96
3146.00,91.02
3145.00,91.09
3144.00,91.15
3143.00,91.21
3142.00,91.27
3141.00,91.33
3140.00,91.39
3139.00,91.45
3138.00,91.51
3137.00,91.57
3136.00,91.63
3135.00,91.69
3134.00,91.74
3133.00,91.80
3132.00,91.86
3131.00,91.91
3130.00,91.97
3129.00,92.03
3128.00,92.09
3127.00,92.15
3126.00,92.20
3125.00,92.26
3124.00,92.31
3123.00,92.37
3122.00,92.42
3121.00,92.48
3120.00,92.53
3119.00,92.58
3118.00,92.63
3117.00,92.69
3116.00,92.74
3115.00,92.80
3114.00,92.85
3113.00,92.90
3112.00,92.95
3111.00,93.00
3110.00,93.06
3109.00,93.11
3108.00,93.16
3107.00,93.21
3106.00,93.26
3105.00,93.31
3104.00,93.35
3103.00,93.40
3102.00,93.45
3101.00,93.49
3100.00,93.54
3099.00,93.59
3098.00,93.64
3097.00,93.69
3096.00,93.73
3095.00,93.77
3094.00,93.82
3093.00,93.86
3092.00,93.91
3091.00,93.95
3090.00,94.00
3089.00,94.04
3088.00,94.09
3087.00,94.13
3086.00,94.17
3085.00,94.21
3084.00,94.25
3083.00,94.29
3082.00,94.33
3081.00,94.37
3080.00,94.41
3079.00,94.45
3078.00,94.50
3077.00,94.54
3076.00,94.57
3075.00,94.61
3074.00,94.65
3073.00,94.68
3072.00,94.72
3071.00,94.76
3070.00,94.80
3069.00,94.84
3068.00,94.88
3067.00,94.91
3066.00,94.94
3065.00,94.97
3064.00,95.00
3063.00,95.04
3062.00,95.07
3061.00,95.11
3060.00,95.14
3059.00,95.17
3058.00,95.20
3057.00,95.23
3056.00,95.26
3055.00,95.29
3054.00,95.33
3053.00,95.36
3052.00,95.39
3051.00,95.42
3050.00,95.44
3049.00,95.47
3048.00,95.50
3047.00,95.52
3046.00,95.55
3045.00,95.58
3044.00,95.60
3043.00,95.63
3042.00,95.65
3041.00,95.67
3040.00,95.69
3039.00,95.72
3038.00,95.74
3037.00,95.77
3036.00,95.79
3035.00,95.81
3034.00,95.83
3033.00,95.85
3032.00,95.87
3031.00,95.89
3030.00,95.91
3029.00,95.93
3028.00,95.94
3027.00,95.96
3026.00,95.98
3025.00,96.00
3024.00,96.02
3023.00,96.04
3022.00,96.06
3021.00,96.08
3020.00,96.10
3019.00,96.12
3018.00,96.14
3017.00,96.15
3016.00,96.16
3015.00,96.18
3014.00,96.20
3013.00,96.21
3012.00,96.23
3011.00,96.25
3010.00,96.26
3009.00,96.27
3008.00,96.29
3007.00,96.30
3006.00,96.31
3005.00,96.31
3004.00,96.32
3003.00,96.33
3002.00,96.33
3001.00,96.33
3000.00,96.33
2999.00,96.33
2998.00,96.32
2997.00,96.31
2996.00,96.31
2995.00,96.29
2994.00,96.28
2993.00,96.26
2992.00,96.25
2991.00,96.23
2990.00,96.20
2989.00,96.18
2988.00,96.15
2987.00,96.12
2986.00,96.09
2985.00,96.06
2984.00,96.02
2983.00,95.98
2982.00,95.93
2981.00,95.88
2980.00,95.83
2979.00,95.77
2978.00,95.71
2977.00,95.63
2976.00,95.55
2975.00,95.47
2974.00,95.37
2973.00,95.27
2972.00,95.15
2971.00,95.03
2970.00,94.89
2969.00,94.74
2968.00,94.58
2967.00,94.41
2966.00,94.22
2965.00,94.01
2964.00,93.79
2963.00,93.56
2962.00,93.31
2961.00,93.04
2960.00,92.77
2959.00,92.48
2958.00,92.18
2957.00,91.87
2956.00,91.55
2955.00,91.24
2954.00,90.92
2953.00,90.60
2952.00,90.30
2951.00,90.00
2950.00,89.72
2949.00,89.46
2948.00,89.22
2947.00,89.01
2946.00,88.82
2945.00,88.67
2944.00,88.54
2943.00,88.44
2942.00,88.36
2941.00,88.31
2940.00,88.29
2939.00,88.28
2938.00,88.29
2937.00,88.31
2936.00,88.35
2935.00,88.39
2934.00,88.44
2933.00,88.48
2932.00,88.53
2931.00,88.57
2930.00,88.60
2929.00,88.62
2928.00,88.63
2927.00,88.62
2926.00,88.60
2925.00,88.57
2924.00,88.51
2923.00,88.45
2922.00,88.37
2921.00,88.29
2920.00,88.21
2919.00,88.13
2918.00,88.05
2917.00,87.99
2916.00,87.93
2915.00,87.89
2914.00,87.86
2913.00,87.85
2912.00,87.84
2911.00,87.85
2910.00,87.88
2909.00,87.92
2908.00,87.99
2907.00,88.08
2906.00,88.20
2905.00,88.33
2904.00,88.49
2903.00,88.67
2902.00,88.87
2901.00,89.08
2900.00,89.32
2899.00,89.56
2898.00,89.80
2897.00,90.05
2896.00,90.30
2895.00,90.53
2894.00,90.76
2893.00,90.98
2892.00,91.19
2891.00,91.39
2890.00,91.56
2889.00,91.72
2888.00,91.87
2887.00,92.00
2886.00,92.12
2885.00,92.23
2884.00,92.33
2883.00,92.41
2882.00,92.49
2881.00,92.56
2880.00,92.62
2879.00,92.68
2878.00,92.73
2877.00,92.78
2876.00,92.83
2875.00,92.87
2874.00,92.91
2873.00,92.94
2872.00,92.98
2871.00,93.01
2870.00,93.05
2869.00,93.08
2868.00,93.11
2867.00,93.14
2866.00,93.16
2865.00,93.19
2864.00,93.21
2863.00,93.23
2862.00,93.25
2861.00,93.26
2860.00,93.28
2859.00,93.29
2858.00,93.30
2857.00,93.31
2856.00,93.32
2855.00,93.34
2854.00,93.35
2853.00,93.36
2852.00,93.39
2851.00,93.42
2850.00,93.47
2849.00,93.53
2848.00,93.60
2847.00,93.67
2846.00,93.73
2845.00,93.80
2844.00,93.86
2843.00,93.93
2842.00,93.98
2841.00,94.04
2840.00,94.10
2839.00,94.15
2838.00,94.20
2837.00,94.25
2836.00,94.29
2835.00,94.34
2834.00,94.38
2833.00,94.43
2832.00,94.47
2831.00,94.52
2830.00,94.57
2829.00,94.61
2828.00,94.66
2827.00,94.70
2826.00,94.75
2825.00,94.79
2824.00,94.84
2823.00,94.89
2822.00,94.94
2821.00,94.99
2820.00,95.04
2819.00,95.09
2818.00,95.15
2817.00,95.20
2816.00,95.26
2815.00,95.31
2814.00,95.36
2813.00,95.42
2812.00,95.47
2811.00,95.52
2810.00,95.58
2809.00,95.63
2808.00,95.68
2807.00,95.73
2806.00,95.78
2805.00,95.83
2804.00,95.87
2803.00,95.91
2802.00,95.95
2801.00,95.99
2800.00,96.03
2799.00,96.06
2798.00,96.10
2797.00,96.13
2796.00,96.16
2795.00,96.18
2794.00,96.21
2793.00,96.24
2792.00,96.26
2791.00,96.28
2790.00,96.30
2789.00,96.33
2788.00,96.35
2787.00,96.37
2786.00,96.39
2785.00,96.40
2784.00,96.42
2783.00,96.43
2782.00,96.45
2781.00,96.46
2780.00,96.48
2779.00,96.49
2778.00,96.50
2777.00,96.52
2776.00,96.53
2775.00,96.54
2774.00,96.55
2773.00,96.56
2772.00,96.56
2771.00,96.57
2770.00,96.58
2769.00,96.59
2768.00,96.60
2767.00,96.60
2766.00,96.61
2765.00,96.62
2764.00,96.63
2763.00,96.63
2762.00,96.64
2761.00,96.64
2760.00,96.65
2759.00,96.65
2758.00,96.66
2757.00,96.67
2756.00,96.67
2755.00,96.68
2754.00,96.69
2753.00,96.69
2752.00,96.70
2751.00,96.70
2750.00,96.71
2749.00,96.72
2748.00,96.72
2747.00,96.73
2746.00,96.74
2745.00,96.75
2744.00,96.75
2743.00,96.76
2742.00,96.77
2741.00,96.78
2740.00,96.78
2739.00,96.79
2738.00,96.80
2737.00,96.81
2736.00,96.82
2735.00,96.83
2734.00,96.84
2733.00,96.84
2732.00,96.85
2731.00,96.86
2730.00,96.87
2729.00,96.88
2728.00,96.89
2727.00,96.90
2726.00,96.91
2725.00,96.91
2724.00,96.92
2723.00,96.93
2722.00,96.93
2721.00,96.94
2720.00,96.94
2719.00,96.95
2718.00,96.95
2717.00,96.96
2716.00,96.97
2715.00,96.97
2714.00,96.98
2713.00,96.98
2712.00,96.98
2711.00,96.99
2710.00,96.99
2709.00,96.99
2708.00,96.99
2707.00,96.99
2706.00,97.00
2705.00,97.00
2704.00,97.00
2703.00,97.01
2702.00,97.01
2701.00,97.01
2700.00,97.01
2699.00,97.01
2698.00,97.02
2697.00,97.02
2696.00,97.02
2695.00,97.02
2694.00,97.02
2693.00,97.02
2692.00,97.02
2691.00,97.02
2690.00,97.02
2689.00,97.02
2688.00,97.02
2687.00,97.03
2686.00,97.03
2685.00,97.03
2684.00,97.04
2683.00,97.04
2682.00,97.05
2681.00,97.05
2680.00,97.05
2679.00,97.06
2678.00,97.07
2677.00,97.07
2676.00,97.08
2675.00,97.08
2674.00,97.08
2673.00,97.08
2672.00,97.09
2671.00,97.09
2670.00,97.09
2669.00,97.10
2668.00,97.10
2667.00,97.10
2666.00,97.10
2665.00,97.10
2664.00,97.10
2663.00,97.10
2662.00,97.10
2661.00,97.10
2660.00,97.11
2659.00,97.11
2658.00,97.11
2657.00,97.12
2656.00,97.12
2655.00,97.12
2654.00,97.12
2653.00,97.13
2652.00,97.13
2651.00,97.14
2650.00,97.15
2649.00,97.15
2648.00,97.16
2647.00,97.16
2646.00,97.17
2645.00,97.18
2644.00,97.19
2643.00,97.20
2642.00,97.21
2641.00,97.22
2640.00,97.22
2639.00,97.23
2638.00,97.24
2637.00,97.25
2636.00,97.25
2635.00,97.26
2634.00,97.28
2633.00,97.29
2632.00,97.29
2631.00,97.30
2630.00,97.31
2629.00,97.32
2628.00,97.32
2627.00,97.33
2626.00,97.34
2625.00,97.35
2624.00,97.37
2623.00,97.38
2622.00,97.39
2621.00,97.40
2620.00,97.40
2619.00,97.41
2618.00,97.42
2617.00,97.43
2616.00,97.45
2615.00,97.46
2614.00,97.47
2613.00,97.48
2612.00,97.49
2611.00,97.50
2610.00,97.51
2609.00,97.52
2608.00,97.52
2607.00,97.53
2606.00,97.54
2605.00,97.55
2604.00,97.56
2603.00,97.57
2602.00,97.58
2601.00,97.59
2600.00,97.60
2599.00,97.61
2598.00,97.62
2597.00,97.63
2596.00,97.64
2595.00,97.64
2594.00,97.65
2593.00,97.65
2592.00,97.66
2591.00,97.67
2590.00,97.68
2589.00,97.69
2588.00,97.70
2587.00,97.70
2586.00,97.71
2585.00,97.71
2584.00,97.71
2583.00,97.72
2582.00,97.72
2581.00,97.73
2580.00,97.73
2579.00,97.74
2578.00,97.74
2577.00,97.75
2576.00,97.75
2575.00,97.76
2574.00,97.76
2573.00,97.77
2572.00,97.78
2571.00,97.78
2570.00,97.78
2569.00,97.78
2568.00,97.79
2567.00,97.79
2566.00,97.80
2565.00,97.81
2564.00,97.81
2563.00,97.81
2562.00,97.81
2561.00,97.81
2560.00,97.81
2559.00,97.81
2558.00,97.82
2557.00,97.82
2556.00,97.83
2555.00,97.83
2554.00,97.84
2553.00,97.84
2552.00,97.84
2551.00,97.84
2550.00,97.84
2549.00,97.84
2548.00,97.85
2547.00,97.85
2546.00,97.85
2545.00,97.85
2544.00,97.85
2543.00,97.85
2542.00,97.86
2541.00,97.87
2540.00,97.87
2539.00,97.87
2538.00,97.88
2537.00,97.88
2536.00,97.88
2535.00,97.88
2534.00,97.88
2533.00,97.89
2532.00,97.89
2531.00,97.89
2530.00,97.90
2529.00,97.90
2528.00,97.91
2527.00,97.91
2526.00,97.91
2525.00,97.91
2524.00,97.91
2523.00,97.91
2522.00,97.91
2521.00,97.91
2520.00,97.91
2519.00,97.91
2518.00,97.91
2517.00,97.92
2516.00,97.93
2515.00,97.94
2514.00,97.95
2513.00,97.95
2512.00,97.96
2511.00,97.96
2510.00,97.96
2509.00,97.96
2508.00,97.96
2507.00,97.97
2506.00,97.98
2505.00,97.98
2504.00,97.99
2503.00,97.99
2502.00,97.99
2501.00,97.99
2500.00,98.00
2499.00,98.01
2498.00,98.01
2497.00,98.02
2496.00,98.02
2495.00,98.03
2494.00,98.03
2493.00,98.03
2492.00,98.03
2491.00,98.03
2490.00,98.04
2489.00,98.04
2488.00,98.05
2487.00,98.06
2486.00,98.07
2485.00,98.07
2484.00,98.08
2483.00,98.08
2482.00,98.09
2481.00,98.09
2480.00,98.09
2479.00,98.09
2478.00,98.10
2477.00,98.10
2476.00,98.11
2475.00,98.11
2474.00,98.11
2473.00,98.12
2472.00,98.12
2471.00,98.12
2470.00,98.13
2469.00,98.13
2468.00,98.14
2467.00,98.14
2466.00,98.15
2465.00,98.15
2464.00,98.15
2463.00,98.15
2462.00,98.15
2461.00,98.14
2460.00,98.14
2459.00,98.13
2458.00,98.14
2457.00,98.14
2456.00,98.14
2455.00,98.15
2454.00,98.15
2453.00,98.15
2452.00,98.16
2451.00,98.16
2450.00,98.17
2449.00,98.17
2448.00,98.17
2447.00,98.18
2446.00,98.18
2445.00,98.18
2444.00,98.19
2443.00,98.19
2442.00,98.20
2441.00,98.20
2440.00,98.21
2439.00,98.22
2438.00,98.22
2437.00,98.22
2436.00,98.22
2435.00,98.22
2434.00,98.22
2433.00,98.23
2432.00,98.23
2431.00,98.23
2430.00,98.23
2429.00,98.23
2428.00,98.24
2427.00,98.24
2426.00,98.25
2425.00,98.25
2424.00,98.26
2423.00,98.26
2422.00,98.26
2421.00,98.26
2420.00,98.27
2419.00,98.27
2418.00,98.28
2417.00,98.28
2416.00,98.28
2415.00,98.28
2414.00,98.28
2413.00,98.28
2412.00,98.28
2411.00,98.28
2410.00,98.29
2409.00,98.29
2408.00,98.30
2407.00,98.30
2406.00,98.31
2405.00,98.32
2404.00,98.32
2403.00,98.32
2402.00,98.33
2401.00,98.33
2400.00,98.34
2399.00,98.34
2398.00,98.35
2397.00,98.35
2396.00,98.36
2395.00,98.36
2394.00,98.37
2393.00,98.37
2392.00,98.37
2391.00,98.38
2390.00,98.38
2389.00,98.39
2388.00,98.39
2387.00,98.40
2386.00,98.41
2385.00,98.42
2384.00,98.43
2383.00,98.44
2382.00,98.46
2381.00,98.48
2380.00,98.49
2379.00,98.51
2378.00,98.53
2377.00,98.55
2376.00,98.56
2375.00,98.56
2374.00,98.56
2373.00,98.55
2372.00,98.54
2371.00,98.54
2370.00,98.55
2369.00,98.55
2368.00,98.55
2367.00,98.56
2366.00,98.58
2365.00,98.60
2364.00,98.61
2363.00,98.60
2362.00,98.60
2361.00,98.59
2360.00,98.58
2359.00,98.59
2358.00,98.59
2357.00,98.59
2356.00,98.58
2355.00,98.57
2354.00,98.56
2353.00,98.56
2352.00,98.57
2351.00,98.58
2350.00,98.58
2349.00,98.58
2348.00,98.57
2347.00,98.58
2346.00,98.60
2345.00,98.62
2344.00,98.62
2343.00,98.61
2342.00,98.58
2341.00,98.56
2340.00,98.54
2339.00,98.53
2338.00,98.52
2337.00,98.51
2336.00,98.51
2335.00,98.50
2334.00,98.50
2333.00,98.49
2332.00,98.49
2331.00,98.49
2330.00,98.50
2329.00,98.49
2328.00,98.46
2327.00,98.41
2326.00,98.35
2325.00,98.29
2324.00,98.26
2323.00,98.26
2322.00,98.29
2321.00,98.32
2320.00,98.35
2319.00,98.36
2318.00,98.36
2317.00,98.37
2316.00,98.37
2315.00,98.38
2314.00,98.39
2313.00,98.40
2312.00,98.41
2311.00,98.42
2310.00,98.41
2309.00,98.41
2308.00,98.41
2307.00,98.40
2306.00,98.40
2305.00,98.40
2304.00,98.39
2303.00,98.39
2302.00,98.39
2301.00,98.38
2300.00,98.37
2299.00,98.37
2298.00,98.36
2297.00,98.35
2296.00,98.34
2295.00,98.33
2294.00,98.32
2293.00,98.30
2292.00,98.29
2291.00,98.28
2290.00,98.26
2289.00,98.25
2288.00,98.23
2287.00,98.22
2286.00,98.20
2285.00,98.20
2284.00,98.20
2283.00,98.21
2282.00,98.23
2281.00,98.24
2280.00,98.25
2279.00,98.26
2278.00,98.26
2277.00,98.27
2276.00,98.28
2275.00,98.29
2274.00,98.30
2273.00,98.31
2272.00,98.31
2271.00,98.31
2270.00,98.30
2269.00,98.30
2268.00,98.31
2267.00,98.32
2266.00,98.33
2265.00,98.34
2264.00,98.34
2263.00,98.33
2262.00,98.32
2261.00,98.31
2260.00,98.30
2259.00,98.30
2258.00,98.29
2257.00,98.30
2256.00,98.30
2255.00,98.32
2254.00,98.34
2253.00,98.35
2252.00,98.36
2251.00,98.35
2250.00,98.34
2249.00,98.34
2248.00,98.33
2247.00,98.33
2246.00,98.33
2245.00,98.34
2244.00,98.34
2243.00,98.34
2242.00,98.34
2241.00,98.33
2240.00,98.32
2239.00,98.32
2238.00,98.32
2237.00,98.33
2236.00,98.33
2235.00,98.33
2234.00,98.32
2233.00,98.32
2232.00,98.32
2231.00,98.31
2230.00,98.31
2229.00,98.32
2228.00,98.32
2227.00,98.32
2226.00,98.32
2225.00,98.32
2224.00,98.32
2223.00,98.33
2222.00,98.34
2221.00,98.35
2220.00,98.35
2219.00,98.35
2218.00,98.34
2217.00,98.34
2216.00,98.33
2215.00,98.32
2214.00,98.32
2213.00,98.32
2212.00,98.32
2211.00,98.32
2210.00,98.31
2209.00,98.30
2208.00,98.29
2207.00,98.28
2206.00,98.27
2205.00,98.28
2204.00,98.28
2203.00,98.28
2202.00,98.27
2201.00,98.27
2200.00,98.26
2199.00,98.25
2198.00,98.25
2197.00,98.26
2196.00,98.25
2195.00,98.25
2194.00,98.24
2193.00,98.23
2192.00,98.23
2191.00,98.23
2190.00,98.22
2189.00,98.20
2188.00,98.18
2187.00,98.17
2186.00,98.16
2185.00,98.16
2184.00,98.17
2183.00,98.19
2182.00,98.23
2181.00,98.26
2180.00,98.27
2179.00,98.26
2178.00,98.24
2177.00,98.23
2176.00,98.23
2175.00,98.25
2174.00,98.27
2173.00,98.26
2172.00,98.23
2171.00,98.17
2170.00,98.12
2169.00,98.08
2168.00,98.04
2167.00,98.03
2166.00,98.01
2165.00,97.99
2164.00,97.96
2163.00,97.93
2162.00,97.92
2161.00,97.97
2160.00,98.11
2159.00,98.32
2158.00,98.53
2157.00,98.67
2156.00,98.70
2155.00,98.68
2154.00,98.64
2153.00,98.60
2152.00,98.57
2151.00,98.54
2150.00,98.52
2149.00,98.52
2148.00,98.52
2147.00,98.53
2146.00,98.55
2145.00,98.55
2144.00,98.55
2143.00,98.55
2142.00,98.56
2141.00,98.56
2140.00,98.56
2139.00,98.56
2138.00,98.57
2137.00,98.59
2136.00,98.62
2135.00,98.65
2134.00,98.68
2133.00,98.69
2132.00,98.69
2131.00,98.67
2130.00,98.65
2129.00,98.62
2128.00,98.60
2127.00,98.58
2126.00,98.57
2125.00,98.56
2124.00,98.55
2123.00,98.54
2122.00,98.53
2121.00,98.52
2120.00,98.51
2119.00,98.49
2118.00,98.48
2117.00,98.46
2116.00,98.43
2115.00,98.41
2114.00,98.39
2113.00,98.39
2112.00,98.39
2111.00,98.39
2110.00,98.39
2109.00,98.39
2108.00,98.39
2107.00,98.39
2106.00,98.39
2105.00,98.40
2104.00,98.39
2103.00,98.39
2102.00,98.38
2101.00,98.38
2100.00,98.38
2099.00,98.39
2098.00,98.40
2097.00,98.42
2096.00,98.44
2095.00,98.47
2094.00,98.50
2093.00,98.50
2092.00,98.49
2091.00,98.48
2090.00,98.47
2089.00,98.45
2088.00,98.44
2087.00,98.43
2086.00,98.41
2085.00,98.40
2084.00,98.38
2083.00,98.37
2082.00,98.36
2081.00,98.36
2080.00,98.36
2079.00,98.36
2078.00,98.36
2077.00,98.35
2076.00,98.35
2075.00,98.35
2074.00,98.36
2073.00,98.37
2072.00,98.37
2071.00,98.37
2070.00,98.38
2069.00,98.38
2068.00,98.37
2067.00,98.37
2066.00,98.38
2065.00,98.39
2064.00,98.40
2063.00,98.40
2062.00,98.40
2061.00,98.39
2060.00,98.38
2059.00,98.37
2058.00,98.36
2057.00,98.35
2056.00,98.35
2055.00,98.35
2054.00,98.36
2053.00,98.34
2052.00,98.28
2051.00,98.21
2050.00,98.18
2049.00,98.19
2048.00,98.23
2047.00,98.27
2046.00,98.29
2045.00,98.30
2044.00,98.30
2043.00,98.30
2042.00,98.30
2041.00,98.31
2040.00,98.30
2039.00,98.29
2038.00,98.28
2037.00,98.27
2036.00,98.26
2035.00,98.27
2034.00,98.29
2033.00,98.32
2032.00,98.34
2031.00,98.35
2030.00,98.35
2029.00,98.36
2028.00,98.37
2027.00,98.37
2026.00,98.38
2025.00,98.38
2024.00,98.39
2023.00,98.40
2022.00,98.41
2021.00,98.42
2020.00,98.42
2019.00,98.41
2018.00,98.40
2017.00,98.40
2016.00,98.41
2015.00,98.41
2014.00,98.41
2013.00,98.41
2012.00,98.41
2011.00,98.40
2010.00,98.39
2009.00,98.39
2008.00,98.41
2007.00,98.44
2006.00,98.49
2005.00,98.51
2004.00,98.51
2003.00,98.49
2002.00,98.48
2001.00,98.47
2000.00,98.46
1999.00,98.44
1998.00,98.43
1997.00,98.42
1996.00,98.40
1995.00,98.39
1994.00,98.39
1993.00,98.37
1992.00,98.35
1991.00,98.33
1990.00,98.32
1989.00,98.31
1988.00,98.30
1987.00,98.29
1986.00,98.28
1985.00,98.27
1984.00,98.24
1983.00,98.22
1982.00,98.18
1981.00,98.14
1980.00,98.10
1979.00,98.10
1978.00,98.17
1977.00,98.26
1976.00,98.34
1975.00,98.38
1974.00,98.41
1973.00,98.42
1972.00,98.42
1971.00,98.43
1970.00,98.43
1969.00,98.43
1968.00,98.43
1967.00,98.44
1966.00,98.45
1965.00,98.45
1964.00,98.44
1963.00,98.44
1962.00,98.45
1961.00,98.48
1960.00,98.50
1959.00,98.52
1958.00,98.53
1957.00,98.53
1956.00,98.52
1955.00,98.50
1954.00,98.49
1953.00,98.47
1952.00,98.47
1951.00,98.47
1950.00,98.47
1949.00,98.48
1948.00,98.49
1947.00,98.49
1946.00,98.50
1945.00,98.50
1944.00,98.51
1943.00,98.52
1942.00,98.52
1941.00,98.52
1940.00,98.52
1939.00,98.51
1938.00,98.51
1937.00,98.50
1936.00,98.50
1935.00,98.50
1934.00,98.51
1933.00,98.51
1932.00,98.51
1931.00,98.50
1930.00,98.50
1929.00,98.50
1928.00,98.50
1927.00,98.50
1926.00,98.50
1925.00,98.51
1924.00,98.51
1923.00,98.52
1922.00,98.52
1921.00,98.52
1920.00,98.50
1919.00,98.49
1918.00,98.48
1917.00,98.49
1916.00,98.49
1915.00,98.49
1914.00,98.49
1913.00,98.49
1912.00,98.49
1911.00,98.49
1910.00,98.49
1909.00,98.50
1908.00,98.50
1907.00,98.50
1906.00,98.49
1905.00,98.48
1904.00,98.48
1903.00,98.47
1902.00,98.48
1901.00,98.48
1900.00,98.48
1899.00,98.48
1898.00,98.48
1897.00,98.48
1896.00,98.48
1895.00,98.48
1894.00,98.48
1893.00,98.48
1892.00,98.48
1891.00,98.48
1890.00,98.49
1889.00,98.50
1888.00,98.50
1887.00,98.49
1886.00,98.49
1885.00,98.49
1884.00,98.48
1883.00,98.48
1882.00,98.48
1881.00,98.48
1880.00,98.48
1879.00,98.47
1878.00,98.47
1877.00,98.47
1876.00,98.47
1875.00,98.47
1874.00,98.47
1873.00,98.46
1872.00,98.46
1871.00,98.47
1870.00,98.48
1869.00,98.49
1868.00,98.50
1867.00,98.50
1866.00,98.49
1865.00,98.48
1864.00,98.47
1863.00,98.47
1862.00,98.47
1861.00,98.47
1860.00,98.47
1859.00,98.46
1858.00,98.47
1857.00,98.47
1856.00,98.47
1855.00,98.47
1854.00,98.46
1853.00,98.46
1852.00,98.47
1851.00,98.47
1850.00,98.48
1849.00,98.48
1848.00,98.48
1847.00,98.48
1846.00,98.47
1845.00,98.47
1844.00,98.47
1843.00,98.48
1842.00,98.48
1841.00,98.48
1840.00,98.47
1839.00,98.46
1838.00,98.46
1837.00,98.46
1836.00,98.45
1835.00,98.44
1834.00,98.44
1833.00,98.44
1832.00,98.43
1831.00,98.43
1830.00,98.43
1829.00,98.44
1828.00,98.44
1827.00,98.44
1826.00,98.44
1825.00,98.44
1824.00,98.44
1823.00,98.44
1822.00,98.43
1821.00,98.43
1820.00,98.43
1819.00,98.45
1818.00,98.47
1817.00,98.49
1816.00,98.50
1815.00,98.49
1814.00,98.48
1813.00,98.47
1812.00,98.47
1811.00,98.47
1810.00,98.47
1809.00,98.47
1808.00,98.47
1807.00,98.46
1806.00,98.46
1805.00,98.45
1804.00,98.44
1803.00,98.43
1802.00,98.44
1801.00,98.44
1800.00,98.45
1799.00,98.45
1798.00,98.44
1797.00,98.44
1796.00,98.43
1795.00,98.42
1794.00,98.41
1793.00,98.40
1792.00,98.41
1791.00,98.41
1790.00,98.41
1789.00,98.40
1788.00,98.38
1787.00,98.37
1786.00,98.35
1785.00,98.35
1784.00,98.35
1783.00,98.34
1782.00,98.34
1781.00,98.33
1780.00,98.32
1779.00,98.31
1778.00,98.29
1777.00,98.28
1776.00,98.27
1775.00,98.25
1774.00,98.22
1773.00,98.20
1772.00,98.19
1771.00,98.17
1770.00,98.15
1769.00,98.12
1768.00,98.08
1767.00,98.04
1766.00,97.99
1765.00,97.95
1764.00,97.89
1763.00,97.80
1762.00,97.71
1761.00,97.61
1760.00,97.49
1759.00,97.34
1758.00,97.15
1757.00,96.90
1756.00,96.62
1755.00,96.32
1754.00,95.99
1753.00,95.58
1752.00,95.05
1751.00,94.37
1750.00,93.63
1749.00,92.85
1748.00,92.05
1747.00,91.25
1746.00,90.46
1745.00,89.66
1744.00,88.84
1743.00,88.06
1742.00,87.33
1741.00,86.61
1740.00,85.87
1739.00,85.23
1738.00,84.80
1737.00,84.53
1736.00,84.31
1735.00,84.01
1734.00,83.66
1733.00,83.46
1732.00,83.45
1731.00,83.52
1730.00,83.62
1729.00,83.71
1728.00,83.81
1727.00,83.91
1726.00,84.00
1725.00,84.06
1724.00,84.08
1723.00,84.08
1722.00,84.08
1721.00,84.08
1720.00,84.08
1719.00,84.01
1718.00,83.83
1717.00,83.64
1716.00,83.54
1715.00,83.51
1714.00,83.52
1713.00,83.58
1712.00,83.71
1711.00,83.89
1710.00,84.11
1709.00,84.37
1708.00,84.71
1707.00,85.12
1706.00,85.58
1705.00,86.09
1704.00,86.58
1703.00,87.05
1702.00,87.58
1701.00,88.26
1700.00,88.98
1699.00,89.58
1698.00,90.06
1697.00,90.57
1696.00,91.14
1695.00,91.65
1694.00,92.03
1693.00,92.35
1692.00,92.65
1691.00,92.96
1690.00,93.27
1689.00,93.54
1688.00,93.76
1687.00,93.94
1686.00,94.11
1685.00,94.29
1684.00,94.47
1683.00,94.62
1682.00,94.73
1681.00,94.82
1680.00,94.89
1679.00,94.96
1678.00,95.01
1677.00,95.04
1676.00,95.06
1675.00,95.08
1674.00,95.12
1673.00,95.16
1672.00,95.20
1671.00,95.22
1670.00,95.22
1669.00,95.22
1668.00,95.22
1667.00,95.23
1666.00,95.25
1665.00,95.25
1664.00,95.25
1663.00,95.25
1662.00,95.26
1661.00,95.28
1660.00,95.30
1659.00,95.32
1658.00,95.34
1657.00,95.37
1656.00,95.39
1655.00,95.41
1654.00,95.41
1653.00,95.40
1652.00,95.44
1651.00,95.49
1650.00,95.55
1649.00,95.59
1648.00,95.63
1647.00,95.66
1646.00,95.69
1645.00,95.72
1644.00,95.74
1643.00,95.78
1642.00,95.82
1641.00,95.86
1640.00,95.91
1639.00,95.95
1638.00,96.00
1637.00,96.04
1636.00,96.07
1635.00,96.11
1634.00,96.16
1633.00,96.20
1632.00,96.24
1631.00,96.29
1630.00,96.33
1629.00,96.37
1628.00,96.41
1627.00,96.46
1626.00,96.50
1625.00,96.54
1624.00,96.58
1623.00,96.63
1622.00,96.68
1621.00,96.72
1620.00,96.74
1619.00,96.77
1618.00,96.80
1617.00,96.83
1616.00,96.87
1615.00,96.91
1614.00,96.95
1613.00,96.97
1612.00,96.99
1611.00,97.01
1610.00,97.04
1609.00,97.06
1608.00,97.08
1607.00,97.10
1606.00,97.12
1605.00,97.13
1604.00,97.14
1603.00,97.15
1602.00,97.16
1601.00,97.16
1600.00,97.15
1599.00,97.15
1598.00,97.15
1597.00,97.15
1596.00,97.15
1595.00,97.15
1594.00,97.15
1593.00,97.13
1592.00,97.12
1591.00,97.10
1590.00,97.08
1589.00,97.06
1588.00,97.04
1587.00,97.01
1586.00,96.98
1585.00,96.95
1584.00,96.92
1583.00,96.90
1582.00,96.87
1581.00,96.85
1580.00,96.83
1579.00,96.82
1578.00,96.80
1577.00,96.77
1576.00,96.74
1575.00,96.73
1574.00,96.73
1573.00,96.73
1572.00,96.72
1571.00,96.72
1570.00,96.72
1569.00,96.72
1568.00,96.73
1567.00,96.74
1566.00,96.75
1565.00,96.76
1564.00,96.77
1563.00,96.78
1562.00,96.80
1561.00,96.81
1560.00,96.81
1559.00,96.83
1558.00,96.88
1557.00,96.89
1556.00,96.89
1555.00,96.90
1554.00,96.91
1553.00,96.92
1552.00,96.93
1551.00,96.94
1550.00,96.96
1549.00,96.96
1548.00,96.95
1547.00,96.95
1546.00,96.96
1545.00,96.97
1544.00,96.98
1543.00,96.99
1542.00,97.01
1541.00,97.02
1540.00,97.03
1539.00,97.04
1538.00,97.04
1537.00,97.04
1536.00,97.04
1535.00,97.04
1534.00,97.05
1533.00,97.05
1532.00,97.04
1531.00,97.04
1530.00,97.04
1529.00,97.03
1528.00,97.01
1527.00,97.01
1526.00,97.01
1525.00,97.00
1524.00,96.98
1523.00,96.97
1522.00,96.96
1521.00,96.93
1520.00,96.91
1519.00,96.90
1518.00,96.89
1517.00,96.86
1516.00,96.82
1515.00,96.79
1514.00,96.76
1513.00,96.72
1512.00,96.68
1511.00,96.67
1510.00,96.67
1509.00,96.65
1508.00,96.60
1507.00,96.52
1506.00,96.43
1505.00,96.33
1504.00,96.27
1503.00,96.23
1502.00,96.19
1501.00,96.13
1500.00,96.05
1499.00,95.97
1498.00,95.89
1497.00,95.77
1496.00,95.63
1495.00,95.53
1494.00,95.45
1493.00,95.36
1492.00,95.25
1491.00,95.13
1490.00,94.99
1489.00,94.82
1488.00,94.64
1487.00,94.46
1486.00,94.29
1485.00,94.11
1484.00,93.93
1483.00,93.76
1482.00,93.56
1481.00,93.35
1480.00,93.14
1479.00,92.95
1478.00,92.76
1477.00,92.54
1476.00,92.32
1475.00,92.10
1474.00,91.85
1473.00,91.53
1472.00,91.19
1471.00,90.93
1470.00,90.73
1469.00,90.54
1468.00,90.35
1467.00,90.14
1466.00,89.88
1465.00,89.57
1464.00,89.27
1463.00,89.05
1462.00,88.88
1461.00,88.73
1460.00,88.57
1459.00,88.38
1458.00,88.06
1457.00,87.62
1456.00,87.25
1455.00,87.03
1454.00,86.88
1453.00,86.70
1452.00,86.50
1451.00,86.30
1450.00,86.10
1449.00,85.87
1448.00,85.62
1447.00,85.39
1446.00,85.20
1445.00,85.02
1444.00,84.85
1443.00,84.69
1442.00,84.52
1441.00,84.37
1440.00,84.24
1439.00,84.15
1438.00,84.01
1437.00,83.80
1436.00,83.58
1435.00,83.47
1434.00,83.43
1433.00,83.40
1432.00,83.36
1431.00,83.33
1430.00,83.28
1429.00,83.23
1428.00,83.22
1427.00,83.24
1426.00,83.29
1425.00,83.32
1424.00,83.35
1423.00,83.40
1422.00,83.48
1421.00,83.56
1420.00,83.64
1419.00,83.71
1418.00,83.79
1417.00,83.89
1416.00,84.01
1415.00,84.15
1414.00,84.29
1413.00,84.43
1412.00,84.58
1411.00,84.74
1410.00,84.91
1409.00,85.09
1408.00,85.28
1407.00,85.48
1406.00,85.69
1405.00,85.91
1404.00,86.12
1403.00,86.34
1402.00,86.56
1401.00,86.78
1400.00,87.02
1399.00,87.25
1398.00,87.46
1397.00,87.64
1396.00,87.79
1395.00,87.90
1394.00,87.97
1393.00,88.00
1392.00,87.99
1391.00,87.95
1390.00,87.85
1389.00,87.67
1388.00,87.38
1387.00,87.00
1386.00,86.58
1385.00,86.15
1384.00,85.70
1383.00,85.22
1382.00,84.71
1381.00,84.21
1380.00,83.71
1379.00,83.26
1378.00,82.87
1377.00,82.56
1376.00,82.33
1375.00,82.16
1374.00,82.07
1373.00,82.07
1372.00,82.17
1371.00,82.36
1370.00,82.60
1369.00,82.88
1368.00,83.18
1367.00,83.47
1366.00,83.76
1365.00,84.03
1364.00,84.30
1363.00,84.57
1362.00,84.81
1361.00,85.03
1360.00,85.24
1359.00,85.45
1358.00,85.66
1357.00,85.87
1356.00,86.06
1355.00,86.23
1354.00,86.37
1353.00,86.48
1352.00,86.56
1351.00,86.62
1350.00,86.66
1349.00,86.66
1348.00,86.64
1347.00,86.60
1346.00,86.54
1345.00,86.46
1344.00,86.38
1343.00,86.29
1342.00,86.20
1341.00,86.10
1340.00,85.96
1339.00,85.82
1338.00,85.68
1337.00,85.55
1336.00,85.44
1335.00,85.34
1334.00,85.25
1333.00,85.17
1332.00,85.08
1331.00,85.01
1330.00,84.95
1329.00,84.90
1328.00,84.85
1327.00,84.82
1326.00,84.80
1325.00,84.79
1324.00,84.79
1323.00,84.81
1322.00,84.83
1321.00,84.87
1320.00,84.91
1319.00,84.96
1318.00,85.02
1317.00,85.09
1316.00,85.16
1315.00,85.24
1314.00,85.32
1313.00,85.40
1312.00,85.48
1311.00,85.57
1310.00,85.65
1309.00,85.74
1308.00,85.82
1307.00,85.90
1306.00,85.97
1305.00,86.03
1304.00,86.08
1303.00,86.13
1302.00,86.16
1301.00,86.18
1300.00,86.18
1299.00,86.17
1298.00,86.15
1297.00,86.11
1296.00,86.04
1295.00,85.96
1294.00,85.86
1293.00,85.73
1292.00,85.56
1291.00,85.38
1290.00,85.16
1289.00,84.91
1288.00,84.63
1287.00,84.33
1286.00,84.00
1285.00,83.66
1284.00,83.30
1283.00,82.92
1282.00,82.54
1281.00,82.14
1280.00,81.73
1279.00,81.32
1278.00,80.91
1277.00,80.50
1276.00,80.10
1275.00,79.71
1274.00,79.34
1273.00,78.98
1272.00,78.63
1271.00,78.30
1270.00,77.98
1269.00,77.69
1268.00,77.41
1267.00,77.16
1266.00,76.93
1265.00,76.72
1264.00,76.53
1263.00,76.36
1262.00,76.22
1261.00,76.10
1260.00,75.98
1259.00,75.88
1258.00,75.80
1257.00,75.74
1256.00,75.68
1255.00,75.63
1254.00,75.60
1253.00,75.56
1252.00,75.52
1251.00,75.48
1250.00,75.45
1249.00,75.42
1248.00,75.37
1247.00,75.34
1246.00,75.31
1245.00,75.28
1244.00,75.24
1243.00,75.22
1242.00,75.22
1241.00,75.22
1240.00,75.23
1239.00,75.28
1238.00,75.37
1237.00,75.50
1236.00,75.66
1235.00,75.89
1234.00,76.17
1233.00,76.49
1232.00,76.87
1231.00,77.29
1230.00,77.76
1229.00,78.25
1228.00,78.76
1227.00,79.29
1226.00,79.85
1225.00,80.40
1224.00,80.96
1223.00,81.51
1222.00,82.06
1221.00,82.58
1220.00,83.07
1219.00,83.55
1218.00,84.00
1217.00,84.43
1216.00,84.84
1215.00,85.22
1214.00,85.57
1213.00,85.90
1212.00,86.21
1211.00,86.51
1210.00,86.79
1209.00,87.05
1208.00,87.29
1207.00,87.53
1206.00,87.76
1205.00,87.97
1204.00,88.18
1203.00,88.37
1202.00,88.54
1201.00,88.70
1200.00,88.86
1199.00,89.01
1198.00,89.16
1197.00,89.30
1196.00,89.43
1195.00,89.56
1194.00,89.67
1193.00,89.78
1192.00,89.88
1191.00,89.97
1190.00,90.05
1189.00,90.13
1188.00,90.21
1187.00,90.29
1186.00,90.37
1185.00,90.44
1184.00,90.51
1183.00,90.58
1182.00,90.65
1181.00,90.71
1180.00,90.77
1179.00,90.83
1178.00,90.89
1177.00,90.95
1176.00,91.01
1175.00,91.09
1174.00,91.16
1173.00,91.22
1172.00,91.28
1171.00,91.35
1170.00,91.41
1169.00,91.48
1168.00,91.55
1167.00,91.61
1166.00,91.67
1165.00,91.72
1164.00,91.77
1163.00,91.80
1162.00,91.81
1161.00,91.80
1160.00,91.76
1159.00,91.69
1158.00,91.56
1157.00,91.36
1156.00,91.05
1155.00,90.64
1154.00,90.09
1153.00,89.41
1152.00,88.59
1151.00,87.64
1150.00,86.60
1149.00,85.48
1148.00,84.34
1147.00,83.24
1146.00,82.23
1145.00,81.37
1144.00,80.68
1143.00,80.20
1142.00,79.93
1141.00,79.83
1140.00,79.85
1139.00,79.95
1138.00,80.09
1137.00,80.21
1136.00,80.30
1135.00,80.37
1134.00,80.41
1133.00,80.42
1132.00,80.41
1131.00,80.39
1130.00,80.36
1129.00,80.32
1128.00,80.27
1127.00,80.22
1126.00,80.18
1125.00,80.12
1124.00,80.06
1123.00,80.01
1122.00,79.94
1121.00,79.86
1120.00,79.76
1119.00,79.64
1118.00,79.52
1117.00,79.37
1116.00,79.20
1115.00,79.00
1114.00,78.78
1113.00,78.51
1112.00,78.21
1111.00,77.86
1110.00,77.46
1109.00,77.00
1108.00,76.48
1107.00,75.93
1106.00,75.34
1105.00,74.73
1104.00,74.12
1103.00,73.51
1102.00,72.94
1101.00,72.39
1100.00,71.87
1099.00,71.40
1098.00,70.99
1097.00,70.62
1096.00,70.28
1095.00,69.99
1094.00,69.75
1093.00,69.55
1092.00,69.37
1091.00,69.24
1090.00,69.16
1089.00,69.10
1088.00,69.07
1087.00,69.08
1086.00,69.14
1085.00,69.21
1084.00,69.30
1083.00,69.42
1082.00,69.56
1081.00,69.70
1080.00,69.84
1079.00,70.00
1078.00,70.18
1077.00,70.35
1076.00,70.51
1075.00,70.68
1074.00,70.84
1073.00,71.00
1072.00,71.14
1071.00,71.28
1070.00,71.43
1069.00,71.57
1068.00,71.70
1067.00,71.85
1066.00,72.01
1065.00,72.16
1064.00,72.31
1063.00,72.47
1062.00,72.63
1061.00,72.77
1060.00,72.89
1059.00,73.02
1058.00,73.14
1057.00,73.24
1056.00,73.32
1055.00,73.38
1054.00,73.42
1053.00,73.44
1052.00,73.43
1051.00,73.42
1050.00,73.41
1049.00,73.40
1048.00,73.39
1047.00,73.39
1046.00,73.42
1045.00,73.46
1044.00,73.51
1043.00,73.58
1042.00,73.67
1041.00,73.75
1040.00,73.82
1039.00,73.87
1038.00,73.92
1037.00,73.94
1036.00,73.92
1035.00,73.88
1034.00,73.80
1033.00,73.69
1032.00,73.53
1031.00,73.36
1030.00,73.18
1029.00,72.97
1028.00,72.77
1027.00,72.57
1026.00,72.41
1025.00,72.26
1024.00,72.15
1023.00,72.11
1022.00,72.15
1021.00,72.26
1020.00,72.45
1019.00,72.73
1018.00,73.09
1017.00,73.52
1016.00,73.99
1015.00,74.51
1014.00,75.07
1013.00,75.64
1012.00,76.20
1011.00,76.76
1010.00,77.31
1009.00,77.83
1008.00,78.33
1007.00,78.80
1006.00,79.25
1005.00,79.67
1004.00,80.05
1003.00,80.43
1002.00,80.78
1001.00,81.11
1000.00,81.43
999.00,81.73
998.00,82.02
997.00,82.30
996.00,82.55
995.00,82.80
994.00,83.03
993.00,83.25
992.00,83.46
991.00,83.66
990.00,83.85
989.00,84.04
988.00,84.22
987.00,84.38
986.00,84.55
985.00,84.70
984.00,84.85
983.00,84.99
982.00,85.13
981.00,85.26
980.00,85.38
979.00,85.49
978.00,85.61
977.00,85.72
976.00,85.82
975.00,85.92
974.00,86.00
973.00,86.08
972.00,86.14
971.00,86.20
970.00,86.25
969.00,86.29
968.00,86.32
967.00,86.35
966.00,86.37
965.00,86.37
964.00,86.36
963.00,86.34
962.00,86.31
961.00,86.27
960.00,86.20
959.00,86.11
958.00,85.99
957.00,85.84
956.00,85.68
955.00,85.50
954.00,85.31
953.00,85.11
952.00,84.91
951.00,84.71
950.00,84.55
949.00,84.41
948.00,84.30
947.00,84.24
946.00,84.21
945.00,84.22
944.00,84.25
943.00,84.30
942.00,84.38
941.00,84.48
940.00,84.59
939.00,84.70
938.00,84.82
937.00,84.92
936.00,85.03
935.00,85.13
934.00,85.22
933.00,85.31
932.00,85.39
931.00,85.46
930.00,85.52
929.00,85.57
928.00,85.61
927.00,85.65
926.00,85.70
925.00,85.73
924.00,85.74
923.00,85.76
922.00,85.78
921.00,85.81
920.00,85.83
919.00,85.85
918.00,85.87
917.00,85.91
916.00,85.96
915.00,86.02
914.00,86.09
913.00,86.16
912.00,86.24
911.00,86.33
910.00,86.44
909.00,86.54
908.00,86.63
907.00,86.72
906.00,86.80
905.00,86.88
904.00,86.95
903.00,87.02
902.00,87.09
901.00,87.16
900.00,87.22
899.00,87.28
898.00,87.33
897.00,87.37
896.00,87.41
895.00,87.45
894.00,87.49
893.00,87.54
892.00,87.59
891.00,87.66
890.00,87.75
889.00,87.85
888.00,87.95
887.00,88.06
886.00,88.18
885.00,88.30
884.00,88.43
883.00,88.57
882.00,88.72
881.00,88.86
880.00,88.98
879.00,89.08
878.00,89.16
877.00,89.20
876.00,89.21
875.00,89.18
874.00,89.11
873.00,88.98
872.00,88.79
871.00,88.51
870.00,88.17
869.00,87.74
868.00,87.25
867.00,86.71
866.00,86.11
865.00,85.48
864.00,84.82
863.00,84.15
862.00,83.48
861.00,82.81
860.00,82.18
859.00,81.58
858.00,81.03
857.00,80.51
856.00,80.02
855.00,79.59
854.00,79.22
853.00,78.87
852.00,78.56
851.00,78.28
850.00,78.04
849.00,77.83
848.00,77.66
847.00,77.53
846.00,77.45
845.00,77.38
844.00,77.33
843.00,77.31
842.00,77.31
841.00,77.34
840.00,77.37
839.00,77.42
838.00,77.46
837.00,77.49
836.00,77.50
835.00,77.53
834.00,77.58
833.00,77.63
832.00,77.67
831.00,77.72
830.00,77.80
829.00,77.88
828.00,77.95
827.00,78.04
826.00,78.13
825.00,78.21
824.00,78.29
823.00,78.38
822.00,78.50
821.00,78.64
820.00,78.80
819.00,78.99
818.00,79.23
817.00,79.50
816.00,79.81
815.00,80.14
814.00,80.51
813.00,80.87
812.00,81.23
811.00,81.58
810.00,81.91
809.00,82.22
808.00,82.49
807.00,82.74
806.00,82.96
805.00,83.15
804.00,83.32
803.00,83.47
802.00,83.61
801.00,83.72
800.00,83.81
799.00,83.90
798.00,83.99
797.00,84.07
796.00,84.14
795.00,84.21
794.00,84.30
793.00,84.39
792.00,84.48
791.00,84.57
790.00,84.66
789.00,84.74
788.00,84.82
787.00,84.89
786.00,84.96
785.00,85.00
784.00,85.02
783.00,85.04
782.00,85.05
781.00,85.05
780.00,85.02
779.00,85.00
778.00,84.97
777.00,84.93
776.00,84.89
775.00,84.84
774.00,84.80
773.00,84.74
772.00,84.68
771.00,84.63
770.00,84.59
769.00,84.53
768.00,84.47
767.00,84.40
766.00,84.34
765.00,84.28
764.00,84.22
763.00,84.17
762.00,84.13
761.00,84.07
760.00,83.99
759.00,83.91
758.00,83.85
757.00,83.79
756.00,83.73
755.00,83.66
754.00,83.59
753.00,83.53
752.00,83.46
751.00,83.40
750.00,83.33
749.00,83.24
748.00,83.15
747.00,83.06
746.00,82.99
745.00,82.90
744.00,82.82
743.00,82.75
742.00,82.70
741.00,82.63
740.00,82.55
739.00,82.46
738.00,82.38
737.00,82.31
736.00,82.24
735.00,82.18
734.00,82.11
733.00,82.03
732.00,81.94
731.00,81.85
730.00,81.78
729.00,81.69
728.00,81.60
727.00,81.51
726.00,81.44
725.00,81.36
724.00,81.28
723.00,81.21
722.00,81.15
721.00,81.07
720.00,80.98
719.00,80.90
718.00,80.82
717.00,80.75
716.00,80.66
715.00,80.58
714.00,80.51
713.00,80.44
712.00,80.37
711.00,80.29
710.00,80.23
709.00,80.15
708.00,80.06
707.00,79.98
706.00,79.92
705.00,79.84
704.00,79.75
703.00,79.68
702.00,79.61
701.00,79.55
700.00,79.48
699.00,79.41
698.00,79.36
697.00,79.28
696.00,79.18
695.00,79.08
694.00,79.00
693.00,78.92
692.00,78.85
691.00,78.78
690.00,78.72
689.00,78.64
688.00,78.54
687.00,78.45
686.00,78.37
685.00,78.29
684.00,78.20
683.00,78.12
682.00,78.06
681.00,78.00
680.00,77.93
679.00,77.87
678.00,77.80
677.00,77.70
676.00,77.58
675.00,77.49
674.00,77.44
673.00,77.39
672.00,77.36
671.00,77.35
670.00,77.32
669.00,77.14
668.00,76.77
667.00,76.51
666.00,76.49
665.00,76.55
664.00,76.57
663.00,76.52
662.00,76.45
661.00,76.37
660.00,76.29
659.00,76.23
658.00,76.17
657.00,76.07
656.00,75.93
655.00,75.81
654.00,75.74
653.00,75.68
652.00,75.60
651.00,75.53
650.00,75.46
