Created as New Dataset,SAN (30% acrylonitrile)
cm-1,%T
4000.00,98.43
3999.00,98.43
3998.00,98.43
3997.00,98.43
3996.00,98.43
3995.00,98.43
3994.00,98.43
3993.00,98.43
3992.00,98.43
3991.00,98.43
3990.00,98.43
3989.00,98.44
3988.00,98.44
3987.00,98.44
3986.00,98.44
3985.00,98.44
3984.00,98.44
3983.00,98.44
3982.00,98.43
3981.00,98.43
3980.00,98.43
3979.00,98.43
3978.00,98.43
3977.00,98.43
3976.00,98.43
3975.00,98.43
3974.00,98.43
3973.00,98.42
3972.00,98.43
3971.00,98.43
3970.00,98.43
3969.00,98.43
3968.00,98.43
3967.00,98.43
3966.00,98.43
3965.00,98.43
3964.00,98.43
3963.00,98.43
3962.00,98.43
3961.00,98.43
3960.00,98.43
3959.00,98.43
3958.00,98.43
3957.00,98.43
3956.00,98.44
3955.00,98.43
3954.00,98.43
3953.00,98.43
3952.00,98.43
3951.00,98.43
3950.00,98.43
3949.00,98.42
3948.00,98.42
3947.00,98.42
3946.00,98.41
3945.00,98.42
3944.00,98.42
3943.00,98.42
3942.00,98.42
3941.00,98.42
3940.00,98.42
3939.00,98.42
3938.00,98.43
3937.00,98.43
3936.00,98.43
3935.00,98.42
3934.00,98.42
3933.00,98.42
3932.00,98.41
3931.00,98.41
3930.00,98.41
3929.00,98.41
3928.00,98.41
3927.00,98.41
3926.00,98.41
3925.00,98.42
3924.00,98.42
3923.00,98.42
3922.00,98.41
3921.00,98.41
3920.00,98.41
3919.00,98.42
3918.00,98.42
3917.00,98.42
3916.00,98.42
3915.00,98.42
3914.00,98.42
3913.00,98.42
3912.00,98.42
3911.00,98.42
3910.00,98.42
3909.00,98.42
3908.00,98.42
3907.00,98.42
3906.00,98.42
3905.00,98.43
3904.00,98.42
3903.00,98.42
3902.00,98.41
3901.00,98.41
3900.00,98.41
3899.00,98.41
3898.00,98.41
3897.00,98.41
3896.00,98.41
3895.00,98.41
3894.00,98.41
3893.00,98.41
3892.00,98.42
3891.00,98.42
3890.00,98.42
3889.00,98.42
3888.00,98.42
3887.00,98.42
3886.00,98.42
3885.00,98.42
3884.00,98.41
3883.00,98.40
3882.00,98.40
3881.00,98.41
3880.00,98.41
3879.00,98.41
3878.00,98.41
3877.00,98.41
3876.00,98.42
3875.00,98.42
3874.00,98.42
3873.00,98.42
3872.00,98.41
3871.00,98.41
3870.00,98.41
3869.00,98.41
3868.00,98.40
3867.00,98.40
3866.00,98.40
3865.00,98.40
3864.00,98.41
3863.00,98.41
3862.00,98.40
3861.00,98.40
3860.00,98.40
3859.00,98.40
3858.00,98.40
3857.00,98.39
3856.00,98.39
3855.00,98.39
3854.00,98.39
3853.00,98.39
3852.00,98.39
3851.00,98.38
3850.00,98.38
3849.00,98.38
3848.00,98.38
3847.00,98.39
3846.00,98.39
3845.00,98.39
3844.00,98.39
3843.00,98.39
3842.00,98.39
3841.00,98.39
3840.00,98.39
3839.00,98.39
3838.00,98.40
3837.00,98.40
3836.00,98.39
3835.00,98.38
3834.00,98.38
3833.00,98.37
3832.00,98.37
3831.00,98.37
3830.00,98.37
3829.00,98.37
3828.00,98.37
3827.00,98.37
3826.00,98.38
3825.00,98.37
3824.00,98.37
3823.00,98.37
3822.00,98.37
3821.00,98.37
3820.00,98.37
3819.00,98.36
3818.00,98.35
3817.00,98.35
3816.00,98.36
3815.00,98.36
3814.00,98.37
3813.00,98.36
3812.00,98.36
3811.00,98.37
3810.00,98.37
3809.00,98.37
3808.00,98.37
3807.00,98.37
3806.00,98.37
3805.00,98.37
3804.00,98.36
3803.00,98.36
3802.00,98.36
3801.00,98.36
3800.00,98.36
3799.00,98.36
3798.00,98.35
3797.00,98.35
3796.00,98.36
3795.00,98.36
3794.00,98.36
3793.00,98.36
3792.00,98.37
3791.00,98.37
3790.00,98.37
3789.00,98.37
3788.00,98.37
3787.00,98.37
3786.00,98.37
3785.00,98.37
3784.00,98.37
3783.00,98.37
3782.00,98.36
3781.00,98.36
3780.00,98.36
3779.00,98.36
3778.00,98.35
3777.00,98.35
3776.00,98.35
3775.00,98.35
3774.00,98.35
3773.00,98.35
3772.00,98.35
3771.00,98.34
3770.00,98.34
3769.00,98.34
3768.00,98.34
3767.00,98.34
3766.00,98.34
3765.00,98.35
3764.00,98.36
3763.00,98.36
3762.00,98.36
3761.00,98.35
3760.00,98.35
3759.00,98.35
3758.00,98.34
3757.00,98.34
3756.00,98.34
3755.00,98.34
3754.00,98.34
3753.00,98.34
3752.00,98.33
3751.00,98.33
3750.00,98.32
3749.00,98.32
3748.00,98.32
3747.00,98.32
3746.00,98.32
3745.00,98.32
3744.00,98.32
3743.00,98.32
3742.00,98.32
3741.00,98.32
3740.00,98.32
3739.00,98.32
3738.00,98.32
3737.00,98.32
3736.00,98.32
3735.00,98.32
3734.00,98.32
3733.00,98.32
3732.00,98.33
3731.00,98.33
3730.00,98.33
3729.00,98.33
3728.00,98.33
3727.00,98.33
3726.00,98.33
3725.00,98.32
3724.00,98.32
3723.00,98.32
3722.00,98.32
3721.00,98.32
3720.00,98.32
3719.00,98.32
3718.00,98.32
3717.00,98.33
3716.00,98.33
3715.00,98.34
3714.00,98.34
3713.00,98.34
3712.00,98.33
3711.00,98.33
3710.00,98.33
3709.00,98.33
3708.00,98.33
3707.00,98.33
3706.00,98.33
3705.00,98.34
3704.00,98.34
3703.00,98.34
3702.00,98.35
3701.00,98.34
3700.00,98.34
3699.00,98.34
3698.00,98.33
3697.00,98.33
3696.00,98.33
3695.00,98.33
3694.00,98.33
3693.00,98.32
3692.00,98.32
3691.00,98.31
3690.00,98.30
3689.00,98.29
3688.00,98.29
3687.00,98.29
3686.00,98.29
3685.00,98.29
3684.00,98.29
3683.00,98.30
3682.00,98.30
3681.00,98.30
3680.00,98.30
3679.00,98.29
3678.00,98.28
3677.00,98.27
3676.00,98.26
3675.00,98.25
3674.00,98.24
3673.00,98.23
3672.00,98.22
3671.00,98.22
3670.00,98.21
3669.00,98.21
3668.00,98.21
3667.00,98.20
3666.00,98.20
3665.00,98.20
3664.00,98.20
3663.00,98.19
3662.00,98.19
3661.00,98.18
3660.00,98.17
3659.00,98.16
3658.00,98.15
3657.00,98.15
3656.00,98.15
3655.00,98.15
3654.00,98.14
3653.00,98.13
3652.00,98.12
3651.00,98.11
3650.00,98.10
3649.00,98.10
3648.00,98.10
3647.00,98.11
3646.00,98.11
3645.00,98.12
3644.00,98.13
3643.00,98.13
3642.00,98.14
3641.00,98.15
3640.00,98.15
3639.00,98.15
3638.00,98.16
3637.00,98.16
3636.00,98.16
3635.00,98.16
3634.00,98.17
3633.00,98.17
3632.00,98.17
3631.00,98.17
3630.00,98.17
3629.00,98.18
3628.00,98.18
3627.00,98.18
3626.00,98.18
3625.00,98.18
3624.00,98.18
3623.00,98.18
3622.00,98.19
3621.00,98.19
3620.00,98.20
3619.00,98.20
3618.00,98.20
3617.00,98.20
3616.00,98.20
3615.00,98.21
3614.00,98.21
3613.00,98.22
3612.00,98.23
3611.00,98.23
3610.00,98.23
3609.00,98.24
3608.00,98.24
3607.00,98.25
3606.00,98.25
3605.00,98.25
3604.00,98.26
3603.00,98.27
3602.00,98.27
3601.00,98.27
3600.00,98.27
3599.00,98.27
3598.00,98.27
3597.00,98.27
3596.00,98.28
3595.00,98.28
3594.00,98.29
3593.00,98.29
3592.00,98.29
3591.00,98.29
3590.00,98.29
3589.00,98.28
3588.00,98.28
3587.00,98.28
3586.00,98.28
3585.00,98.28
3584.00,98.27
3583.00,98.28
3582.00,98.28
3581.00,98.29
3580.00,98.29
3579.00,98.29
3578.00,98.29
3577.00,98.29
3576.00,98.28
3575.00,98.28
3574.00,98.28
3573.00,98.28
3572.00,98.28
3571.00,98.28
3570.00,98.28
3569.00,98.27
3568.00,98.27
3567.00,98.26
3566.00,98.25
3565.00,98.25
3564.00,98.25
3563.00,98.25
3562.00,98.25
3561.00,98.25
3560.00,98.25
3559.00,98.24
3558.00,98.24
3557.00,98.24
3556.00,98.24
3555.00,98.24
3554.00,98.24
3553.00,98.24
3552.00,98.24
3551.00,98.23
3550.00,98.23
3549.00,98.22
3548.00,98.22
3547.00,98.22
3546.00,98.22
3545.00,98.22
3544.00,98.22
3543.00,98.21
3542.00,98.21
3541.00,98.21
3540.00,98.21
3539.00,98.21
3538.00,98.21
3537.00,98.21
3536.00,98.21
3535.00,98.21
3534.00,98.21
3533.00,98.21
3532.00,98.21
3531.00,98.21
3530.00,98.21
3529.00,98.21
3528.00,98.21
3527.00,98.22
3526.00,98.22
3525.00,98.22
3524.00,98.22
3523.00,98.22
3522.00,98.22
3521.00,98.23
3520.00,98.23
3519.00,98.23
3518.00,98.23
3517.00,98.23
3516.00,98.23
3515.00,98.23
3514.00,98.24
3513.00,98.24
3512.00,98.24
3511.00,98.24
3510.00,98.25
3509.00,98.25
3508.00,98.25
3507.00,98.26
3506.00,98.26
3505.00,98.26
3504.00,98.26
3503.00,98.26
3502.00,98.26
3501.00,98.26
3500.00,98.26
3499.00,98.27
3498.00,98.27
3497.00,98.28
3496.00,98.28
3495.00,98.27
3494.00,98.27
3493.00,98.27
3492.00,98.27
3491.00,98.27
3490.00,98.28
3489.00,98.28
3488.00,98.28
3487.00,98.28
3486.00,98.29
3485.00,98.29
3484.00,98.29
3483.00,98.30
3482.00,98.30
3481.00,98.29
3480.00,98.29
3479.00,98.29
3478.00,98.30
3477.00,98.30
3476.00,98.31
3475.00,98.31
3474.00,98.31
3473.00,98.31
3472.00,98.31
3471.00,98.32
3470.00,98.32
3469.00,98.32
3468.00,98.32
3467.00,98.32
3466.00,98.32
3465.00,98.32
3464.00,98.32
3463.00,98.31
3462.00,98.31
3461.00,98.31
3460.00,98.31
3459.00,98.32
3458.00,98.32
3457.00,98.33
3456.00,98.33
3455.00,98.33
3454.00,98.32
3453.00,98.33
3452.00,98.33
3451.00,98.33
3450.00,98.33
3449.00,98.33
3448.00,98.33
3447.00,98.33
3446.00,98.33
3445.00,98.33
3444.00,98.33
3443.00,98.33
3442.00,98.33
3441.00,98.33
3440.00,98.34
3439.00,98.34
3438.00,98.34
3437.00,98.34
3436.00,98.34
3435.00,98.34
3434.00,98.34
3433.00,98.34
3432.00,98.34
3431.00,98.34
3430.00,98.34
3429.00,98.34
3428.00,98.34
3427.00,98.34
3426.00,98.34
3425.00,98.34
3424.00,98.35
3423.00,98.35
3422.00,98.35
3421.00,98.35
3420.00,98.35
3419.00,98.35
3418.00,98.35
3417.00,98.35
3416.00,98.35
3415.00,98.35
3414.00,98.35
3413.00,98.35
3412.00,98.35
3411.00,98.36
3410.00,98.36
3409.00,98.36
3408.00,98.36
3407.00,98.35
3406.00,98.35
3405.00,98.34
3404.00,98.34
3403.00,98.35
3402.00,98.36
3401.00,98.36
3400.00,98.36
3399.00,98.36
3398.00,98.36
3397.00,98.36
3396.00,98.36
3395.00,98.36
3394.00,98.35
3393.00,98.35
3392.00,98.35
3391.00,98.35
3390.00,98.36
3389.00,98.36
3388.00,98.36
3387.00,98.36
3386.00,98.36
3385.00,98.36
3384.00,98.36
3383.00,98.36
3382.00,98.36
3381.00,98.36
3380.00,98.36
3379.00,98.36
3378.00,98.36
3377.00,98.37
3376.00,98.37
3375.00,98.37
3374.00,98.37
3373.00,98.37
3372.00,98.37
3371.00,98.36
3370.00,98.36
3369.00,98.36
3368.00,98.36
3367.00,98.36
3366.00,98.36
3365.00,98.37
3364.00,98.37
3363.00,98.37
3362.00,98.36
3361.00,98.36
3360.00,98.36
3359.00,98.36
3358.00,98.35
3357.00,98.35
3356.00,98.35
3355.00,98.35
3354.00,98.35
3353.00,98.35
3352.00,98.35
3351.00,98.36
3350.00,98.36
3349.00,98.36
3348.00,98.36
3347.00,98.36
3346.00,98.36
3345.00,98.35
3344.00,98.35
3343.00,98.35
3342.00,98.35
3341.00,98.35
3340.00,98.35
3339.00,98.35
3338.00,98.35
3337.00,98.35
3336.00,98.35
3335.00,98.35
3334.00,98.35
3333.00,98.36
3332.00,98.36
3331.00,98.36
3330.00,98.35
3329.00,98.35
3328.00,98.35
3327.00,98.35
3326.00,98.35
3325.00,98.35
3324.00,98.36
3323.00,98.36
3322.00,98.36
3321.00,98.35
3320.00,98.35
3319.00,98.35
3318.00,98.35
3317.00,98.35
3316.00,98.35
3315.00,98.35
3314.00,98.35
3313.00,98.35
3312.00,98.35
3311.00,98.35
3310.00,98.35
3309.00,98.35
3308.00,98.35
3307.00,98.35
3306.00,98.34
3305.00,98.34
3304.00,98.34
3303.00,98.35
3302.00,98.35
3301.00,98.35
3300.00,98.35
3299.00,98.35
3298.00,98.35
3297.00,98.35
3296.00,98.35
3295.00,98.35
3294.00,98.35
3293.00,98.35
3292.00,98.34
3291.00,98.34
3290.00,98.34
3289.00,98.34
3288.00,98.34
3287.00,98.34
3286.00,98.35
3285.00,98.35
3284.00,98.35
3283.00,98.35
3282.00,98.35
3281.00,98.34
3280.00,98.34
3279.00,98.34
3278.00,98.34
3277.00,98.34
3276.00,98.34
3275.00,98.34
3274.00,98.35
3273.00,98.35
3272.00,98.35
3271.00,98.34
3270.00,98.34
3269.00,98.34
3268.00,98.34
3267.00,98.34
3266.00,98.34
3265.00,98.34
3264.00,98.34
3263.00,98.34
3262.00,98.33
3261.00,98.33
3260.00,98.33
3259.00,98.34
3258.00,98.34
3257.00,98.34
3256.00,98.33
3255.00,98.33
3254.00,98.33
3253.00,98.33
3252.00,98.32
3251.00,98.32
3250.00,98.32
3249.00,98.32
3248.00,98.32
3247.00,98.32
3246.00,98.32
3245.00,98.32
3244.00,98.33
3243.00,98.33
3242.00,98.33
3241.00,98.33
3240.00,98.32
3239.00,98.32
3238.00,98.32
3237.00,98.33
3236.00,98.33
3235.00,98.33
3234.00,98.32
3233.00,98.32
3232.00,98.32
3231.00,98.32
3230.00,98.32
3229.00,98.32
3228.00,98.32
3227.00,98.32
3226.00,98.32
3225.00,98.32
3224.00,98.31
3223.00,98.32
3222.00,98.32
3221.00,98.32
3220.00,98.32
3219.00,98.32
3218.00,98.32
3217.00,98.31
3216.00,98.31
3215.00,98.31
3214.00,98.30
3213.00,98.30
3212.00,98.30
3211.00,98.30
3210.00,98.31
3209.00,98.31
3208.00,98.31
3207.00,98.30
3206.00,98.30
3205.00,98.30
3204.00,98.30
3203.00,98.30
3202.00,98.30
3201.00,98.30
3200.00,98.30
3199.00,98.30
3198.00,98.30
3197.00,98.31
3196.00,98.31
3195.00,98.31
3194.00,98.31
3193.00,98.32
3192.00,98.32
3191.00,98.31
3190.00,98.31
3189.00,98.31
3188.00,98.31
3187.00,98.31
3186.00,98.31
3185.00,98.31
3184.00,98.31
3183.00,98.31
3182.00,98.31
3181.00,98.31
3180.00,98.31
3179.00,98.31
3178.00,98.31
3177.00,98.31
3176.00,98.31
3175.00,98.31
3174.00,98.31
3173.00,98.31
3172.00,98.30
3171.00,98.30
3170.00,98.30
3169.00,98.30
3168.00,98.29
3167.00,98.29
3166.00,98.29
3165.00,98.28
3164.00,98.28
3163.00,98.28
3162.00,98.28
3161.00,98.29
3160.00,98.29
3159.00,98.30
3158.00,98.30
3157.00,98.30
3156.00,98.30
3155.00,98.30
3154.00,98.31
3153.00,98.31
3152.00,98.31
3151.00,98.30
3150.00,98.30
3149.00,98.30
3148.00,98.30
3147.00,98.30
3146.00,98.30
3145.00,98.30
3144.00,98.30
3143.00,98.30
3142.00,98.30
3141.00,98.31
3140.00,98.31
3139.00,98.31
3138.00,98.30
3137.00,98.30
3136.00,98.30
3135.00,98.31
3134.00,98.31
3133.00,98.30
3132.00,98.30
3131.00,98.29
3130.00,98.29
3129.00,98.29
3128.00,98.29
3127.00,98.29
3126.00,98.28
3125.00,98.28
3124.00,98.28
3123.00,98.27
3122.00,98.27
3121.00,98.26
3120.00,98.24
3119.00,98.23
3118.00,98.21
3117.00,98.20
3116.00,98.17
3115.00,98.15
3114.00,98.12
3113.00,98.09
3112.00,98.06
3111.00,98.02
3110.00,97.99
3109.00,97.97
3108.00,97.94
3107.00,97.93
3106.00,97.92
3105.00,97.92
3104.00,97.92
3103.00,97.93
3102.00,97.94
3101.00,97.94
3100.00,97.94
3099.00,97.93
3098.00,97.91
3097.00,97.89
3096.00,97.85
3095.00,97.80
3094.00,97.75
3093.00,97.69
3092.00,97.61
3091.00,97.53
3090.00,97.45
3089.00,97.36
3088.00,97.29
3087.00,97.23
3086.00,97.19
3085.00,97.17
3084.00,97.18
3083.00,97.20
3082.00,97.24
3081.00,97.28
3080.00,97.33
3079.00,97.36
3078.00,97.39
3077.00,97.40
3076.00,97.39
3075.00,97.38
3074.00,97.34
3073.00,97.30
3072.00,97.24
3071.00,97.18
3070.00,97.10
3069.00,97.01
3068.00,96.92
3067.00,96.83
3066.00,96.74
3065.00,96.66
3064.00,96.60
3063.00,96.56
3062.00,96.54
3061.00,96.55
3060.00,96.57
3059.00,96.62
3058.00,96.68
3057.00,96.75
3056.00,96.82
3055.00,96.90
3054.00,96.98
3053.00,97.05
3052.00,97.11
3051.00,97.16
3050.00,97.20
3049.00,97.23
3048.00,97.24
3047.00,97.24
3046.00,97.22
3045.00,97.19
3044.00,97.16
3043.00,97.10
3042.00,97.04
3041.00,96.96
3040.00,96.86
3039.00,96.74
3038.00,96.61
3037.00,96.46
3036.00,96.29
3035.00,96.11
3034.00,95.92
3033.00,95.73
3032.00,95.54
3031.00,95.38
3030.00,95.25
3029.00,95.17
3028.00,95.15
3027.00,95.18
3026.00,95.28
3025.00,95.42
3024.00,95.61
3023.00,95.82
3022.00,96.05
3021.00,96.28
3020.00,96.49
3019.00,96.69
3018.00,96.86
3017.00,97.00
3016.00,97.10
3015.00,97.18
3014.00,97.23
3013.00,97.26
3012.00,97.27
3011.00,97.26
3010.00,97.23
3009.00,97.20
3008.00,97.16
3007.00,97.13
3006.00,97.11
3005.00,97.11
3004.00,97.12
3003.00,97.16
3002.00,97.21
3001.00,97.28
3000.00,97.35
2999.00,97.43
2998.00,97.50
2997.00,97.57
2996.00,97.62
2995.00,97.67
2994.00,97.70
2993.00,97.73
2992.00,97.75
2991.00,97.76
2990.00,97.77
2989.00,97.78
2988.00,97.78
2987.00,97.77
2986.00,97.76
2985.00,97.75
2984.00,97.74
2983.00,97.72
2982.00,97.70
2981.00,97.68
2980.00,97.66
2979.00,97.65
2978.00,97.63
2977.00,97.61
2976.00,97.59
2975.00,97.56
2974.00,97.53
2973.00,97.50
2972.00,97.46
2971.00,97.42
2970.00,97.37
2969.00,97.32
2968.00,97.26
2967.00,97.20
2966.00,97.14
2965.00,97.07
2964.00,96.99
2963.00,96.91
2962.00,96.83
2961.00,96.74
2960.00,96.65
2959.00,96.55
2958.00,96.45
2957.00,96.34
2956.00,96.23
2955.00,96.12
2954.00,96.00
2953.00,95.89
2952.00,95.77
2951.00,95.65
2950.00,95.54
2949.00,95.43
2948.00,95.32
2947.00,95.21
2946.00,95.10
2945.00,95.00
2944.00,94.89
2943.00,94.79
2942.00,94.69
2941.00,94.59
2940.00,94.50
2939.00,94.41
2938.00,94.33
2937.00,94.25
2936.00,94.17
2935.00,94.09
2934.00,94.02
2933.00,93.95
2932.00,93.89
2931.00,93.83
2930.00,93.78
2929.00,93.73
2928.00,93.69
2927.00,93.66
2926.00,93.64
2925.00,93.63
2924.00,93.63
2923.00,93.65
2922.00,93.69
2921.00,93.74
2920.00,93.81
2919.00,93.89
2918.00,93.98
2917.00,94.08
2916.00,94.19
2915.00,94.30
2914.00,94.42
2913.00,94.53
2912.00,94.64
2911.00,94.76
2910.00,94.87
2909.00,94.97
2908.00,95.07
2907.00,95.17
2906.00,95.26
2905.00,95.35
2904.00,95.43
2903.00,95.51
2902.00,95.58
2901.00,95.64
2900.00,95.70
2899.00,95.75
2898.00,95.79
2897.00,95.83
2896.00,95.87
2895.00,95.91
2894.00,95.94
2893.00,95.98
2892.00,96.01
2891.00,96.05
2890.00,96.08
2889.00,96.12
2888.00,96.16
2887.00,96.20
2886.00,96.24
2885.00,96.29
2884.00,96.32
2883.00,96.36
2882.00,96.40
2881.00,96.44
2880.00,96.47
2879.00,96.51
2878.00,96.53
2877.00,96.56
2876.00,96.57
2875.00,96.58
2874.00,96.59
2873.00,96.58
2872.00,96.57
2871.00,96.56
2870.00,96.54
2869.00,96.52
2868.00,96.49
2867.00,96.46
2866.00,96.43
2865.00,96.40
2864.00,96.37
2863.00,96.33
2862.00,96.31
2861.00,96.28
2860.00,96.26
2859.00,96.24
2858.00,96.24
2857.00,96.24
2856.00,96.25
2855.00,96.27
2854.00,96.29
2853.00,96.33
2852.00,96.38
2851.00,96.44
2850.00,96.52
2849.00,96.60
2848.00,96.68
2847.00,96.78
2846.00,96.87
2845.00,96.96
2844.00,97.04
2843.00,97.13
2842.00,97.20
2841.00,97.28
2840.00,97.34
2839.00,97.40
2838.00,97.45
2837.00,97.49
2836.00,97.53
2835.00,97.56
2834.00,97.59
2833.00,97.62
2832.00,97.64
2831.00,97.66
2830.00,97.68
2829.00,97.69
2828.00,97.70
2827.00,97.71
2826.00,97.72
2825.00,97.73
2824.00,97.74
2823.00,97.75
2822.00,97.75
2821.00,97.76
2820.00,97.76
2819.00,97.77
2818.00,97.77
2817.00,97.78
2816.00,97.78
2815.00,97.78
2814.00,97.79
2813.00,97.79
2812.00,97.80
2811.00,97.80
2810.00,97.81
2809.00,97.82
2808.00,97.82
2807.00,97.83
2806.00,97.83
2805.00,97.83
2804.00,97.84
2803.00,97.84
2802.00,97.85
2801.00,97.85
2800.00,97.85
2799.00,97.86
2798.00,97.87
2797.00,97.87
2796.00,97.87
2795.00,97.88
2794.00,97.88
2793.00,97.88
2792.00,97.88
2791.00,97.88
2790.00,97.88
2789.00,97.89
2788.00,97.89
2787.00,97.89
2786.00,97.90
2785.00,97.90
2784.00,97.90
2783.00,97.90
2782.00,97.91
2781.00,97.91
2780.00,97.92
2779.00,97.92
2778.00,97.93
2777.00,97.93
2776.00,97.94
2775.00,97.94
2774.00,97.95
2773.00,97.95
2772.00,97.95
2771.00,97.95
2770.00,97.95
2769.00,97.96
2768.00,97.96
2767.00,97.97
2766.00,97.97
2765.00,97.97
2764.00,97.97
2763.00,97.97
2762.00,97.97
2761.00,97.97
2760.00,97.97
2759.00,97.98
2758.00,97.98
2757.00,97.98
2756.00,97.98
2755.00,97.99
2754.00,97.99
2753.00,97.99
2752.00,97.99
2751.00,97.99
2750.00,97.98
2749.00,97.98
2748.00,97.98
2747.00,97.99
2746.00,97.99
2745.00,97.99
2744.00,97.99
2743.00,97.99
2742.00,97.99
2741.00,97.99
2740.00,97.99
2739.00,97.99
2738.00,97.99
2737.00,97.99
2736.00,97.99
2735.00,97.98
2734.00,97.98
2733.00,97.98
2732.00,97.99
2731.00,97.99
2730.00,97.99
2729.00,97.99
2728.00,97.99
2727.00,97.99
2726.00,97.99
2725.00,97.99
2724.00,97.99
2723.00,97.98
2722.00,97.98
2721.00,97.99
2720.00,97.99
2719.00,97.99
2718.00,97.99
2717.00,97.99
2716.00,97.99
2715.00,97.99
2714.00,97.99
2713.00,97.99
2712.00,97.99
2711.00,97.99
2710.00,97.99
2709.00,97.99
2708.00,97.99
2707.00,97.99
2706.00,97.99
2705.00,97.99
2704.00,97.99
2703.00,97.99
2702.00,97.99
2701.00,97.99
2700.00,97.99
2699.00,97.99
2698.00,97.99
2697.00,97.99
2696.00,97.99
2695.00,97.99
2694.00,97.99
2693.00,97.99
2692.00,97.99
2691.00,97.99
2690.00,97.99
2689.00,97.99
2688.00,97.99
2687.00,97.99
2686.00,97.99
2685.00,97.99
2684.00,97.99
2683.00,97.99
2682.00,97.99
2681.00,97.98
2680.00,97.98
2679.00,97.99
2678.00,97.99
2677.00,97.99
2676.00,97.99
2675.00,97.99
2674.00,97.99
2673.00,97.99
2672.00,97.99
2671.00,97.99
2670.00,97.99
2669.00,97.99
2668.00,97.98
2667.00,97.98
2666.00,97.98
2665.00,97.97
2664.00,97.96
2663.00,97.95
2662.00,97.94
2661.00,97.93
2660.00,97.92
2659.00,97.91
2658.00,97.91
2657.00,97.90
2656.00,97.90
2655.00,97.89
2654.00,97.89
2653.00,97.89
2652.00,97.89
2651.00,97.88
2650.00,97.87
2649.00,97.87
2648.00,97.87
2647.00,97.86
2646.00,97.86
2645.00,97.86
2644.00,97.85
2643.00,97.85
2642.00,97.85
2641.00,97.84
2640.00,97.83
2639.00,97.83
2638.00,97.82
2637.00,97.82
2636.00,97.82
2635.00,97.82
2634.00,97.82
2633.00,97.83
2632.00,97.83
2631.00,97.84
2630.00,97.85
2629.00,97.85
2628.00,97.85
2627.00,97.85
2626.00,97.85
2625.00,97.85
2624.00,97.85
2623.00,97.85
2622.00,97.85
2621.00,97.85
2620.00,97.86
2619.00,97.86
2618.00,97.86
2617.00,97.86
2616.00,97.86
2615.00,97.86
2614.00,97.86
2613.00,97.86
2612.00,97.85
2611.00,97.85
2610.00,97.84
2609.00,97.84
2608.00,97.84
2607.00,97.84
2606.00,97.84
2605.00,97.84
2604.00,97.84
2603.00,97.84
2602.00,97.84
2601.00,97.84
2600.00,97.84
2599.00,97.85
2598.00,97.86
2597.00,97.87
2596.00,97.87
2595.00,97.88
2594.00,97.88
2593.00,97.87
2592.00,97.87
2591.00,97.87
2590.00,97.87
2589.00,97.87
2588.00,97.87
2587.00,97.87
2586.00,97.87
2585.00,97.87
2584.00,97.87
2583.00,97.87
2582.00,97.87
2581.00,97.87
2580.00,97.87
2579.00,97.87
2578.00,97.87
2577.00,97.87
2576.00,97.88
2575.00,97.88
2574.00,97.89
2573.00,97.88
2572.00,97.88
2571.00,97.88
2570.00,97.88
2569.00,97.88
2568.00,97.89
2567.00,97.89
2566.00,97.89
2565.00,97.88
2564.00,97.88
2563.00,97.88
2562.00,97.88
2561.00,97.88
2560.00,97.89
2559.00,97.89
2558.00,97.89
2557.00,97.90
2556.00,97.91
2555.00,97.91
2554.00,97.90
2553.00,97.90
2552.00,97.89
2551.00,97.89
2550.00,97.89
2549.00,97.89
2548.00,97.90
2547.00,97.90
2546.00,97.90
2545.00,97.90
2544.00,97.90
2543.00,97.89
2542.00,97.90
2541.00,97.90
2540.00,97.90
2539.00,97.90
2538.00,97.91
2537.00,97.91
2536.00,97.90
2535.00,97.91
2534.00,97.90
2533.00,97.90
2532.00,97.90
2531.00,97.89
2530.00,97.89
2529.00,97.89
2528.00,97.89
2527.00,97.89
2526.00,97.90
2525.00,97.89
2524.00,97.89
2523.00,97.89
2522.00,97.90
2521.00,97.90
2520.00,97.90
2519.00,97.90
2518.00,97.90
2517.00,97.90
2516.00,97.90
2515.00,97.90
2514.00,97.91
2513.00,97.91
2512.00,97.91
2511.00,97.91
2510.00,97.91
2509.00,97.92
2508.00,97.92
2507.00,97.92
2506.00,97.92
2505.00,97.91
2504.00,97.91
2503.00,97.91
2502.00,97.91
2501.00,97.91
2500.00,97.91
2499.00,97.92
2498.00,97.92
2497.00,97.92
2496.00,97.92
2495.00,97.92
2494.00,97.91
2493.00,97.91
2492.00,97.91
2491.00,97.91
2490.00,97.91
2489.00,97.91
2488.00,97.91
2487.00,97.92
2486.00,97.92
2485.00,97.93
2484.00,97.93
2483.00,97.94
2482.00,97.94
2481.00,97.94
2480.00,97.94
2479.00,97.95
2478.00,97.94
2477.00,97.94
2476.00,97.94
2475.00,97.94
2474.00,97.94
2473.00,97.93
2472.00,97.93
2471.00,97.94
2470.00,97.94
2469.00,97.94
2468.00,97.95
2467.00,97.95
2466.00,97.94
2465.00,97.94
2464.00,97.93
2463.00,97.93
2462.00,97.93
2461.00,97.93
2460.00,97.92
2459.00,97.92
2458.00,97.91
2457.00,97.90
2456.00,97.90
2455.00,97.90
2454.00,97.90
2453.00,97.91
2452.00,97.91
2451.00,97.91
2450.00,97.91
2449.00,97.91
2448.00,97.91
2447.00,97.91
2446.00,97.91
2445.00,97.92
2444.00,97.92
2443.00,97.92
2442.00,97.92
2441.00,97.92
2440.00,97.92
2439.00,97.93
2438.00,97.93
2437.00,97.93
2436.00,97.94
2435.00,97.94
2434.00,97.94
2433.00,97.94
2432.00,97.94
2431.00,97.95
2430.00,97.95
2429.00,97.95
2428.00,97.95
2427.00,97.96
2426.00,97.96
2425.00,97.96
2424.00,97.96
2423.00,97.96
2422.00,97.96
2421.00,97.97
2420.00,97.97
2419.00,97.97
2418.00,97.97
2417.00,97.97
2416.00,97.98
2415.00,97.98
2414.00,97.97
2413.00,97.97
2412.00,97.97
2411.00,97.97
2410.00,97.97
2409.00,97.97
2408.00,97.98
2407.00,97.98
2406.00,97.99
2405.00,98.00
2404.00,98.00
2403.00,98.01
2402.00,98.01
2401.00,98.01
2400.00,98.01
2399.00,98.01
2398.00,98.01
2397.00,98.01
2396.00,98.01
2395.00,98.01
2394.00,98.01
2393.00,98.01
2392.00,98.01
2391.00,98.01
2390.00,98.01
2389.00,98.02
2388.00,98.02
2387.00,98.02
2386.00,98.02
2385.00,98.02
2384.00,98.02
2383.00,98.02
2382.00,98.02
2381.00,98.02
2380.00,98.02
2379.00,98.01
2378.00,98.01
2377.00,98.01
2376.00,98.01
2375.00,98.01
2374.00,98.00
2373.00,98.00
2372.00,98.00
2371.00,98.01
2370.00,98.02
2369.00,98.03
2368.00,98.03
2367.00,98.02
2366.00,98.01
2365.00,98.00
2364.00,97.99
2363.00,97.98
2362.00,97.97
2361.00,97.97
2360.00,97.97
2359.00,97.97
2358.00,97.96
2357.00,97.95
2356.00,97.96
2355.00,97.97
2354.00,97.97
2353.00,97.95
2352.00,97.94
2351.00,97.94
2350.00,97.94
2349.00,97.95
2348.00,97.95
2347.00,97.95
2346.00,97.94
2345.00,97.92
2344.00,97.91
2343.00,97.89
2342.00,97.89
2341.00,97.88
2340.00,97.87
2339.00,97.87
2338.00,97.87
2337.00,97.87
2336.00,97.88
2335.00,97.88
2334.00,97.89
2333.00,97.89
2332.00,97.89
2331.00,97.89
2330.00,97.89
2329.00,97.88
2328.00,97.85
2327.00,97.80
2326.00,97.73
2325.00,97.66
2324.00,97.61
2323.00,97.60
2322.00,97.61
2321.00,97.63
2320.00,97.65
2319.00,97.66
2318.00,97.67
2317.00,97.68
2316.00,97.69
2315.00,97.70
2314.00,97.70
2313.00,97.71
2312.00,97.71
2311.00,97.72
2310.00,97.73
2309.00,97.74
2308.00,97.74
2307.00,97.75
2306.00,97.75
2305.00,97.75
2304.00,97.76
2303.00,97.76
2302.00,97.76
2301.00,97.76
2300.00,97.76
2299.00,97.75
2298.00,97.75
2297.00,97.74
2296.00,97.73
2295.00,97.72
2294.00,97.71
2293.00,97.70
2292.00,97.69
2291.00,97.68
2290.00,97.66
2289.00,97.65
2288.00,97.64
2287.00,97.63
2286.00,97.62
2285.00,97.61
2284.00,97.61
2283.00,97.62
2282.00,97.63
2281.00,97.64
2280.00,97.66
2279.00,97.67
2278.00,97.68
2277.00,97.68
2276.00,97.68
2275.00,97.68
2274.00,97.68
2273.00,97.68
2272.00,97.67
2271.00,97.68
2270.00,97.68
2269.00,97.68
2268.00,97.69
2267.00,97.69
2266.00,97.70
2265.00,97.70
2264.00,97.70
2263.00,97.68
2262.00,97.67
2261.00,97.65
2260.00,97.62
2259.00,97.59
2258.00,97.57
2257.00,97.54
2256.00,97.52
2255.00,97.50
2254.00,97.47
2253.00,97.42
2252.00,97.34
2251.00,97.24
2250.00,97.12
2249.00,96.97
2248.00,96.80
2247.00,96.60
2246.00,96.37
2245.00,96.12
2244.00,95.85
2243.00,95.57
2242.00,95.29
2241.00,95.02
2240.00,94.79
2239.00,94.62
2238.00,94.53
2237.00,94.52
2236.00,94.61
2235.00,94.78
2234.00,95.03
2233.00,95.32
2232.00,95.65
2231.00,95.98
2230.00,96.28
2229.00,96.54
2228.00,96.75
2227.00,96.91
2226.00,97.05
2225.00,97.15
2224.00,97.22
2223.00,97.27
2222.00,97.31
2221.00,97.35
2220.00,97.38
2219.00,97.40
2218.00,97.42
2217.00,97.43
2216.00,97.45
2215.00,97.46
2214.00,97.46
2213.00,97.47
2212.00,97.48
2211.00,97.48
2210.00,97.48
2209.00,97.49
2208.00,97.49
2207.00,97.50
2206.00,97.50
2205.00,97.50
2204.00,97.49
2203.00,97.48
2202.00,97.48
2201.00,97.49
2200.00,97.49
2199.00,97.50
2198.00,97.50
2197.00,97.49
2196.00,97.48
2195.00,97.47
2194.00,97.46
2193.00,97.45
2192.00,97.44
2191.00,97.43
2190.00,97.42
2189.00,97.40
2188.00,97.39
2187.00,97.38
2186.00,97.37
2185.00,97.37
2184.00,97.38
2183.00,97.42
2182.00,97.48
2181.00,97.52
2180.00,97.54
2179.00,97.52
2178.00,97.50
2177.00,97.49
2176.00,97.50
2175.00,97.54
2174.00,97.56
2173.00,97.56
2172.00,97.53
2171.00,97.50
2170.00,97.45
2169.00,97.39
2168.00,97.34
2167.00,97.31
2166.00,97.28
2165.00,97.26
2164.00,97.23
2163.00,97.19
2162.00,97.15
2161.00,97.17
2160.00,97.30
2159.00,97.54
2158.00,97.80
2157.00,97.98
2156.00,98.06
2155.00,98.06
2154.00,98.03
2153.00,97.99
2152.00,97.94
2151.00,97.89
2150.00,97.87
2149.00,97.85
2148.00,97.86
2147.00,97.87
2146.00,97.88
2145.00,97.88
2144.00,97.89
2143.00,97.89
2142.00,97.90
2141.00,97.91
2140.00,97.91
2139.00,97.92
2138.00,97.93
2137.00,97.95
2136.00,97.97
2135.00,98.01
2134.00,98.06
2133.00,98.08
2132.00,98.08
2131.00,98.06
2130.00,98.03
2129.00,98.00
2128.00,97.98
2127.00,97.96
2126.00,97.93
2125.00,97.91
2124.00,97.89
2123.00,97.88
2122.00,97.88
2121.00,97.87
2120.00,97.85
2119.00,97.83
2118.00,97.81
2117.00,97.78
2116.00,97.76
2115.00,97.74
2114.00,97.72
2113.00,97.72
2112.00,97.72
2111.00,97.72
2110.00,97.72
2109.00,97.72
2108.00,97.72
2107.00,97.72
2106.00,97.72
2105.00,97.72
2104.00,97.73
2103.00,97.73
2102.00,97.73
2101.00,97.73
2100.00,97.73
2099.00,97.72
2098.00,97.73
2097.00,97.74
2096.00,97.77
2095.00,97.80
2094.00,97.82
2093.00,97.83
2092.00,97.82
2091.00,97.81
2090.00,97.79
2089.00,97.77
2088.00,97.76
2087.00,97.75
2086.00,97.75
2085.00,97.73
2084.00,97.72
2083.00,97.70
2082.00,97.69
2081.00,97.68
2080.00,97.67
2079.00,97.66
2078.00,97.66
2077.00,97.65
2076.00,97.66
2075.00,97.66
2074.00,97.67
2073.00,97.67
2072.00,97.66
2071.00,97.66
2070.00,97.66
2069.00,97.66
2068.00,97.66
2067.00,97.66
2066.00,97.66
2065.00,97.67
2064.00,97.67
2063.00,97.68
2062.00,97.68
2061.00,97.68
2060.00,97.67
2059.00,97.67
2058.00,97.66
2057.00,97.64
2056.00,97.63
2055.00,97.62
2054.00,97.62
2053.00,97.57
2052.00,97.50
2051.00,97.42
2050.00,97.39
2049.00,97.41
2048.00,97.46
2047.00,97.50
2046.00,97.52
2045.00,97.53
2044.00,97.53
2043.00,97.53
2042.00,97.52
2041.00,97.50
2040.00,97.47
2039.00,97.45
2038.00,97.43
2037.00,97.43
2036.00,97.44
2035.00,97.47
2034.00,97.52
2033.00,97.55
2032.00,97.57
2031.00,97.57
2030.00,97.55
2029.00,97.54
2028.00,97.54
2027.00,97.54
2026.00,97.54
2025.00,97.54
2024.00,97.54
2023.00,97.55
2022.00,97.56
2021.00,97.56
2020.00,97.56
2019.00,97.55
2018.00,97.55
2017.00,97.55
2016.00,97.55
2015.00,97.56
2014.00,97.57
2013.00,97.57
2012.00,97.57
2011.00,97.56
2010.00,97.55
2009.00,97.56
2008.00,97.60
2007.00,97.65
2006.00,97.70
2005.00,97.72
2004.00,97.71
2003.00,97.68
2002.00,97.65
2001.00,97.62
2000.00,97.59
1999.00,97.57
1998.00,97.53
1997.00,97.50
1996.00,97.47
1995.00,97.45
1994.00,97.43
1993.00,97.42
1992.00,97.41
1991.00,97.41
1990.00,97.41
1989.00,97.39
1988.00,97.37
1987.00,97.34
1986.00,97.32
1985.00,97.29
1984.00,97.25
1983.00,97.21
1982.00,97.15
1981.00,97.07
1980.00,97.02
1979.00,97.02
1978.00,97.08
1977.00,97.18
1976.00,97.27
1975.00,97.33
1974.00,97.36
1973.00,97.38
1972.00,97.38
1971.00,97.37
1970.00,97.35
1969.00,97.33
1968.00,97.31
1967.00,97.29
1966.00,97.29
1965.00,97.28
1964.00,97.26
1963.00,97.25
1962.00,97.24
1961.00,97.25
1960.00,97.27
1959.00,97.30
1958.00,97.31
1957.00,97.31
1956.00,97.30
1955.00,97.28
1954.00,97.27
1953.00,97.26
1952.00,97.26
1951.00,97.26
1950.00,97.27
1949.00,97.27
1948.00,97.27
1947.00,97.28
1946.00,97.29
1945.00,97.32
1944.00,97.35
1943.00,97.38
1942.00,97.41
1941.00,97.43
1940.00,97.45
1939.00,97.47
1938.00,97.49
1937.00,97.51
1936.00,97.54
1935.00,97.57
1934.00,97.59
1933.00,97.62
1932.00,97.64
1931.00,97.65
1930.00,97.66
1929.00,97.66
1928.00,97.67
1927.00,97.67
1926.00,97.68
1925.00,97.68
1924.00,97.69
1923.00,97.69
1922.00,97.70
1921.00,97.70
1920.00,97.70
1919.00,97.70
1918.00,97.71
1917.00,97.70
1916.00,97.69
1915.00,97.67
1914.00,97.67
1913.00,97.67
1912.00,97.67
1911.00,97.67
1910.00,97.67
1909.00,97.67
1908.00,97.65
1907.00,97.64
1906.00,97.63
1905.00,97.63
1904.00,97.61
1903.00,97.60
1902.00,97.59
1901.00,97.58
1900.00,97.57
1899.00,97.56
1898.00,97.54
1897.00,97.53
1896.00,97.51
1895.00,97.50
1894.00,97.49
1893.00,97.48
1892.00,97.47
1891.00,97.45
1890.00,97.44
1889.00,97.43
1888.00,97.41
1887.00,97.40
1886.00,97.39
1885.00,97.39
1884.00,97.39
1883.00,97.39
1882.00,97.39
1881.00,97.39
1880.00,97.38
1879.00,97.38
1878.00,97.38
1877.00,97.38
1876.00,97.39
1875.00,97.40
1874.00,97.42
1873.00,97.44
1872.00,97.45
1871.00,97.46
1870.00,97.48
1869.00,97.50
1868.00,97.52
1867.00,97.55
1866.00,97.57
1865.00,97.60
1864.00,97.62
1863.00,97.63
1862.00,97.65
1861.00,97.67
1860.00,97.69
1859.00,97.71
1858.00,97.73
1857.00,97.74
1856.00,97.75
1855.00,97.76
1854.00,97.76
1853.00,97.77
1852.00,97.77
1851.00,97.78
1850.00,97.79
1849.00,97.79
1848.00,97.79
1847.00,97.79
1846.00,97.79
1845.00,97.79
1844.00,97.79
1843.00,97.79
1842.00,97.79
1841.00,97.78
1840.00,97.78
1839.00,97.77
1838.00,97.76
1837.00,97.75
1836.00,97.74
1835.00,97.73
1834.00,97.72
1833.00,97.71
1832.00,97.69
1831.00,97.68
1830.00,97.67
1829.00,97.65
1828.00,97.64
1827.00,97.62
1826.00,97.60
1825.00,97.59
1824.00,97.57
1823.00,97.55
1822.00,97.54
1821.00,97.54
1820.00,97.53
1819.00,97.54
1818.00,97.55
1817.00,97.56
1816.00,97.56
1815.00,97.54
1814.00,97.53
1813.00,97.52
1812.00,97.50
1811.00,97.50
1810.00,97.49
1809.00,97.49
1808.00,97.49
1807.00,97.49
1806.00,97.50
1805.00,97.51
1804.00,97.52
1803.00,97.53
1802.00,97.54
1801.00,97.55
1800.00,97.57
1799.00,97.59
1798.00,97.61
1797.00,97.63
1796.00,97.65
1795.00,97.67
1794.00,97.69
1793.00,97.70
1792.00,97.72
1791.00,97.73
1790.00,97.73
1789.00,97.74
1788.00,97.74
1787.00,97.75
1786.00,97.75
1785.00,97.75
1784.00,97.75
1783.00,97.74
1782.00,97.74
1781.00,97.73
1780.00,97.72
1779.00,97.72
1778.00,97.71
1777.00,97.71
1776.00,97.71
1775.00,97.70
1774.00,97.70
1773.00,97.69
1772.00,97.68
1771.00,97.67
1770.00,97.67
1769.00,97.67
1768.00,97.67
1767.00,97.66
1766.00,97.66
1765.00,97.65
1764.00,97.65
1763.00,97.64
1762.00,97.63
1761.00,97.62
1760.00,97.61
1759.00,97.60
1758.00,97.59
1757.00,97.59
1756.00,97.58
1755.00,97.58
1754.00,97.58
1753.00,97.58
1752.00,97.58
1751.00,97.58
1750.00,97.58
1749.00,97.57
1748.00,97.58
1747.00,97.58
1746.00,97.59
1745.00,97.59
1744.00,97.60
1743.00,97.60
1742.00,97.61
1741.00,97.62
1740.00,97.63
1739.00,97.63
1738.00,97.64
1737.00,97.64
1736.00,97.64
1735.00,97.65
1734.00,97.66
1733.00,97.66
1732.00,97.66
1731.00,97.67
1730.00,97.68
1729.00,97.69
1728.00,97.69
1727.00,97.70
1726.00,97.70
1725.00,97.71
1724.00,97.71
1723.00,97.72
1722.00,97.72
1721.00,97.73
1720.00,97.73
1719.00,97.73
1718.00,97.74
1717.00,97.74
1716.00,97.74
1715.00,97.75
1714.00,97.76
1713.00,97.76
1712.00,97.77
1711.00,97.77
1710.00,97.78
1709.00,97.78
1708.00,97.78
1707.00,97.78
1706.00,97.78
1705.00,97.78
1704.00,97.77
1703.00,97.77
1702.00,97.77
1701.00,97.77
1700.00,97.76
1699.00,97.76
1698.00,97.76
1697.00,97.76
1696.00,97.76
1695.00,97.76
1694.00,97.75
1693.00,97.74
1692.00,97.74
1691.00,97.74
1690.00,97.73
1689.00,97.73
1688.00,97.72
1687.00,97.71
1686.00,97.70
1685.00,97.69
1684.00,97.68
1683.00,97.67
1682.00,97.67
1681.00,97.67
1680.00,97.67
1679.00,97.67
1678.00,97.66
1677.00,97.66
1676.00,97.65
1675.00,97.65
1674.00,97.65
1673.00,97.65
1672.00,97.66
1671.00,97.66
1670.00,97.67
1669.00,97.68
1668.00,97.69
1667.00,97.70
1666.00,97.71
1665.00,97.71
1664.00,97.72
1663.00,97.72
1662.00,97.73
1661.00,97.73
1660.00,97.74
1659.00,97.74
1658.00,97.75
1657.00,97.75
1656.00,97.75
1655.00,97.75
1654.00,97.74
1653.00,97.74
1652.00,97.75
1651.00,97.75
1650.00,97.75
1649.00,97.75
1648.00,97.75
1647.00,97.75
1646.00,97.76
1645.00,97.76
1644.00,97.75
1643.00,97.75
1642.00,97.74
1641.00,97.73
1640.00,97.72
1639.00,97.70
1638.00,97.69
1637.00,97.66
1636.00,97.64
1635.00,97.62
1634.00,97.61
1633.00,97.60
1632.00,97.58
1631.00,97.56
1630.00,97.54
1629.00,97.52
1628.00,97.50
1627.00,97.48
1626.00,97.47
1625.00,97.46
1624.00,97.45
1623.00,97.44
1622.00,97.43
1621.00,97.43
1620.00,97.42
1619.00,97.41
1618.00,97.40
1617.00,97.38
1616.00,97.36
1615.00,97.33
1614.00,97.29
1613.00,97.23
1612.00,97.14
1611.00,97.00
1610.00,96.81
1609.00,96.55
1608.00,96.22
1607.00,95.84
1606.00,95.44
1605.00,95.06
1604.00,94.75
1603.00,94.57
1602.00,94.58
1601.00,94.77
1600.00,95.07
1599.00,95.44
1598.00,95.80
1597.00,96.12
1596.00,96.38
1595.00,96.59
1594.00,96.75
1593.00,96.87
1592.00,96.95
1591.00,96.99
1590.00,96.98
1589.00,96.92
1588.00,96.80
1587.00,96.64
1586.00,96.47
1585.00,96.34
1584.00,96.29
1583.00,96.34
1582.00,96.49
1581.00,96.69
1580.00,96.88
1579.00,97.04
1578.00,97.18
1577.00,97.29
1576.00,97.39
1575.00,97.46
1574.00,97.51
1573.00,97.54
1572.00,97.56
1571.00,97.59
1570.00,97.61
1569.00,97.63
1568.00,97.64
1567.00,97.64
1566.00,97.65
1565.00,97.65
1564.00,97.65
1563.00,97.66
1562.00,97.66
1561.00,97.65
1560.00,97.64
1559.00,97.61
1558.00,97.60
1557.00,97.60
1556.00,97.60
1555.00,97.59
1554.00,97.59
1553.00,97.59
1552.00,97.59
1551.00,97.58
1550.00,97.58
1549.00,97.57
1548.00,97.57
1547.00,97.57
1546.00,97.58
1545.00,97.58
1544.00,97.58
1543.00,97.58
1542.00,97.59
1541.00,97.61
1540.00,97.63
1539.00,97.66
1538.00,97.68
1537.00,97.69
1536.00,97.70
1535.00,97.72
1534.00,97.74
1533.00,97.76
1532.00,97.77
1531.00,97.78
1530.00,97.79
1529.00,97.80
1528.00,97.81
1527.00,97.82
1526.00,97.83
1525.00,97.83
1524.00,97.83
1523.00,97.82
1522.00,97.82
1521.00,97.82
1520.00,97.82
1519.00,97.82
1518.00,97.82
1517.00,97.82
1516.00,97.81
1515.00,97.80
1514.00,97.79
1513.00,97.79
1512.00,97.77
1511.00,97.75
1510.00,97.73
1509.00,97.69
1508.00,97.64
1507.00,97.55
1506.00,97.44
1505.00,97.33
1504.00,97.19
1503.00,96.99
1502.00,96.69
1501.00,96.23
1500.00,95.52
1499.00,94.49
1498.00,93.07
1497.00,91.31
1496.00,89.65
1495.00,88.56
1494.00,88.20
1493.00,88.54
1492.00,89.47
1491.00,90.87
1490.00,92.37
1489.00,93.62
1488.00,94.50
1487.00,95.12
1486.00,95.58
1485.00,95.93
1484.00,96.20
1483.00,96.43
1482.00,96.61
1481.00,96.75
1480.00,96.86
1479.00,96.93
1478.00,97.00
1477.00,97.04
1476.00,97.07
1475.00,97.10
1474.00,97.12
1473.00,97.12
1472.00,97.11
1471.00,97.10
1470.00,97.08
1469.00,97.04
1468.00,96.98
1467.00,96.90
1466.00,96.79
1465.00,96.62
1464.00,96.38
1463.00,96.11
1462.00,95.78
1461.00,95.35
1460.00,94.74
1459.00,93.80
1458.00,92.22
1457.00,90.06
1456.00,88.06
1455.00,86.73
1454.00,85.96
1453.00,85.64
1452.00,85.75
1451.00,86.19
1450.00,86.80
1449.00,87.48
1448.00,88.20
1447.00,88.89
1446.00,89.50
1445.00,90.04
1444.00,90.57
1443.00,91.09
1442.00,91.58
1441.00,92.01
1440.00,92.39
1439.00,92.75
1438.00,93.13
1437.00,93.58
1436.00,94.03
1435.00,94.40
1434.00,94.68
1433.00,94.93
1432.00,95.19
1431.00,95.45
1430.00,95.67
1429.00,95.87
1428.00,96.03
1427.00,96.15
1426.00,96.25
1425.00,96.34
1424.00,96.43
1423.00,96.50
1422.00,96.54
1421.00,96.59
1420.00,96.64
1419.00,96.70
1418.00,96.74
1417.00,96.77
1416.00,96.79
1415.00,96.82
1414.00,96.83
1413.00,96.85
1412.00,96.87
1411.00,96.88
1410.00,96.89
1409.00,96.90
1408.00,96.91
1407.00,96.92
1406.00,96.92
1405.00,96.92
1404.00,96.93
1403.00,96.92
1402.00,96.91
1401.00,96.90
1400.00,96.89
1399.00,96.87
1398.00,96.84
1397.00,96.82
1396.00,96.80
1395.00,96.77
1394.00,96.73
1393.00,96.70
1392.00,96.68
1391.00,96.65
1390.00,96.61
1389.00,96.57
1388.00,96.52
1387.00,96.47
1386.00,96.41
1385.00,96.34
1384.00,96.28
1383.00,96.20
1382.00,96.11
1381.00,96.02
1380.00,95.92
1379.00,95.82
1378.00,95.71
1377.00,95.61
1376.00,95.52
1375.00,95.44
1374.00,95.37
1373.00,95.31
1372.00,95.27
1371.00,95.23
1370.00,95.19
1369.00,95.16
1368.00,95.13
1367.00,95.11
1366.00,95.09
1365.00,95.08
1364.00,95.08
1363.00,95.07
1362.00,95.08
1361.00,95.08
1360.00,95.09
1359.00,95.10
1358.00,95.10
1357.00,95.10
1356.00,95.10
1355.00,95.10
1354.00,95.09
1353.00,95.09
1352.00,95.09
1351.00,95.08
1350.00,95.08
1349.00,95.08
1348.00,95.08
1347.00,95.08
1346.00,95.09
1345.00,95.10
1344.00,95.11
1343.00,95.13
1342.00,95.15
1341.00,95.17
1340.00,95.19
1339.00,95.21
1338.00,95.22
1337.00,95.24
1336.00,95.26
1335.00,95.28
1334.00,95.29
1333.00,95.30
1332.00,95.31
1331.00,95.32
1330.00,95.34
1329.00,95.35
1328.00,95.38
1327.00,95.40
1326.00,95.42
1325.00,95.43
1324.00,95.44
1323.00,95.44
1322.00,95.45
1321.00,95.45
1320.00,95.45
1319.00,95.46
1318.00,95.46
1317.00,95.47
1316.00,95.48
1315.00,95.49
1314.00,95.50
1313.00,95.52
1312.00,95.54
1311.00,95.55
1310.00,95.57
1309.00,95.58
1308.00,95.60
1307.00,95.62
1306.00,95.65
1305.00,95.68
1304.00,95.72
1303.00,95.76
1302.00,95.79
1301.00,95.82
1300.00,95.85
1299.00,95.87
1298.00,95.90
1297.00,95.93
1296.00,95.95
1295.00,95.97
1294.00,95.99
1293.00,96.01
1292.00,96.03
1291.00,96.06
1290.00,96.08
1289.00,96.10
1288.00,96.12
1287.00,96.15
1286.00,96.17
1285.00,96.19
1284.00,96.22
1283.00,96.24
1282.00,96.27
1281.00,96.30
1280.00,96.32
1279.00,96.35
1278.00,96.38
1277.00,96.41
1276.00,96.44
1275.00,96.46
1274.00,96.49
1273.00,96.51
1272.00,96.53
1271.00,96.56
1270.00,96.58
1269.00,96.59
1268.00,96.61
1267.00,96.63
1266.00,96.65
1265.00,96.66
1264.00,96.68
1263.00,96.70
1262.00,96.72
1261.00,96.74
1260.00,96.76
1259.00,96.77
1258.00,96.78
1257.00,96.80
1256.00,96.82
1255.00,96.84
1254.00,96.87
1253.00,96.89
1252.00,96.92
1251.00,96.95
1250.00,96.97
1249.00,96.99
1248.00,97.00
1247.00,97.02
1246.00,97.03
1245.00,97.04
1244.00,97.06
1243.00,97.07
1242.00,97.08
1241.00,97.10
1240.00,97.12
1239.00,97.13
1238.00,97.14
1237.00,97.14
1236.00,97.15
1235.00,97.16
1234.00,97.16
1233.00,97.16
1232.00,97.16
1231.00,97.16
1230.00,97.16
1229.00,97.15
1228.00,97.15
1227.00,97.14
1226.00,97.12
1225.00,97.10
1224.00,97.08
1223.00,97.06
1222.00,97.05
1221.00,97.03
1220.00,97.01
1219.00,96.99
1218.00,96.96
1217.00,96.92
1216.00,96.88
1215.00,96.84
1214.00,96.80
1213.00,96.77
1212.00,96.74
1211.00,96.71
1210.00,96.68
1209.00,96.66
1208.00,96.64
1207.00,96.62
1206.00,96.59
1205.00,96.57
1204.00,96.54
1203.00,96.52
1202.00,96.50
1201.00,96.48
1200.00,96.48
1199.00,96.48
1198.00,96.49
1197.00,96.50
1196.00,96.51
1195.00,96.52
1194.00,96.53
1193.00,96.52
1192.00,96.51
1191.00,96.48
1190.00,96.43
1189.00,96.37
1188.00,96.29
1187.00,96.21
1186.00,96.12
1185.00,96.05
1184.00,96.01
1183.00,96.00
1182.00,96.03
1181.00,96.09
1180.00,96.18
1179.00,96.29
1178.00,96.40
1177.00,96.49
1176.00,96.57
1175.00,96.63
1174.00,96.66
1173.00,96.68
1172.00,96.69
1171.00,96.70
1170.00,96.69
1169.00,96.68
1168.00,96.66
1167.00,96.64
1166.00,96.60
1165.00,96.55
1164.00,96.48
1163.00,96.40
1162.00,96.28
1161.00,96.16
1160.00,96.02
1159.00,95.89
1158.00,95.78
1157.00,95.70
1156.00,95.68
1155.00,95.73
1154.00,95.84
1153.00,96.01
1152.00,96.20
1151.00,96.39
1150.00,96.57
1149.00,96.71
1148.00,96.83
1147.00,96.93
1146.00,97.00
1145.00,97.05
1144.00,97.09
1143.00,97.13
1142.00,97.16
1141.00,97.19
1140.00,97.20
1139.00,97.21
1138.00,97.21
1137.00,97.21
1136.00,97.22
1135.00,97.22
1134.00,97.23
1133.00,97.23
1132.00,97.23
1131.00,97.23
1130.00,97.22
1129.00,97.22
1128.00,97.21
1127.00,97.20
1126.00,97.17
1125.00,97.13
1124.00,97.09
1123.00,97.06
1122.00,97.02
1121.00,96.99
1120.00,96.94
1119.00,96.90
1118.00,96.85
1117.00,96.81
1116.00,96.78
1115.00,96.76
1114.00,96.74
1113.00,96.73
1112.00,96.72
1111.00,96.71
1110.00,96.70
1109.00,96.68
1108.00,96.67
1107.00,96.65
1106.00,96.62
1105.00,96.60
1104.00,96.58
1103.00,96.57
1102.00,96.55
1101.00,96.53
1100.00,96.52
1099.00,96.51
1098.00,96.50
1097.00,96.48
1096.00,96.47
1095.00,96.46
1094.00,96.44
1093.00,96.43
1092.00,96.41
1091.00,96.38
1090.00,96.34
1089.00,96.29
1088.00,96.23
1087.00,96.17
1086.00,96.09
1085.00,96.00
1084.00,95.90
1083.00,95.80
1082.00,95.69
1081.00,95.58
1080.00,95.45
1079.00,95.32
1078.00,95.19
1077.00,95.06
1076.00,94.94
1075.00,94.82
1074.00,94.72
1073.00,94.64
1072.00,94.58
1071.00,94.54
1070.00,94.53
1069.00,94.56
1068.00,94.62
1067.00,94.70
1066.00,94.79
1065.00,94.88
1064.00,94.98
1063.00,95.07
1062.00,95.15
1061.00,95.24
1060.00,95.31
1059.00,95.39
1058.00,95.45
1057.00,95.50
1056.00,95.55
1055.00,95.58
1054.00,95.62
1053.00,95.66
1052.00,95.70
1051.00,95.74
1050.00,95.79
1049.00,95.83
1048.00,95.86
1047.00,95.89
1046.00,95.91
1045.00,95.92
1044.00,95.93
1043.00,95.92
1042.00,95.91
1041.00,95.88
1040.00,95.82
1039.00,95.73
1038.00,95.58
1037.00,95.37
1036.00,95.10
1035.00,94.76
1034.00,94.37
1033.00,93.95
1032.00,93.55
1031.00,93.21
1030.00,92.98
1029.00,92.89
1028.00,92.93
1027.00,93.08
1026.00,93.30
1025.00,93.53
1024.00,93.77
1023.00,93.98
1022.00,94.16
1021.00,94.31
1020.00,94.44
1019.00,94.54
1018.00,94.63
1017.00,94.70
1016.00,94.76
1015.00,94.82
1014.00,94.87
1013.00,94.92
1012.00,94.95
1011.00,94.98
1010.00,95.00
1009.00,95.01
1008.00,95.01
1007.00,94.99
1006.00,94.97
1005.00,94.95
1004.00,94.97
1003.00,95.04
1002.00,95.16
1001.00,95.29
1000.00,95.42
999.00,95.52
998.00,95.56
997.00,95.57
996.00,95.56
995.00,95.54
994.00,95.52
993.00,95.51
992.00,95.49
991.00,95.47
990.00,95.46
989.00,95.45
988.00,95.45
987.00,95.45
986.00,95.45
985.00,95.46
984.00,95.48
983.00,95.51
982.00,95.55
981.00,95.58
980.00,95.62
979.00,95.65
978.00,95.69
977.00,95.71
976.00,95.72
975.00,95.72
974.00,95.71
973.00,95.69
972.00,95.67
971.00,95.65
970.00,95.63
969.00,95.62
968.00,95.63
967.00,95.65
966.00,95.68
965.00,95.71
964.00,95.76
963.00,95.82
962.00,95.89
961.00,95.97
960.00,96.04
959.00,96.09
958.00,96.14
957.00,96.18
956.00,96.21
955.00,96.24
954.00,96.26
953.00,96.27
952.00,96.29
951.00,96.30
950.00,96.31
949.00,96.32
948.00,96.34
947.00,96.35
946.00,96.36
945.00,96.36
944.00,96.37
943.00,96.37
942.00,96.38
941.00,96.39
940.00,96.40
939.00,96.42
938.00,96.43
937.00,96.45
936.00,96.46
935.00,96.47
934.00,96.49
933.00,96.50
932.00,96.49
931.00,96.46
930.00,96.43
929.00,96.39
928.00,96.34
927.00,96.29
926.00,96.23
925.00,96.16
924.00,96.07
923.00,95.97
922.00,95.85
921.00,95.72
920.00,95.58
919.00,95.43
918.00,95.28
917.00,95.12
916.00,94.97
915.00,94.83
914.00,94.71
913.00,94.61
912.00,94.54
911.00,94.51
910.00,94.53
909.00,94.58
908.00,94.67
907.00,94.79
906.00,94.94
905.00,95.10
904.00,95.26
903.00,95.43
902.00,95.58
901.00,95.73
900.00,95.86
899.00,95.97
898.00,96.05
897.00,96.12
896.00,96.18
895.00,96.23
894.00,96.28
893.00,96.32
892.00,96.36
891.00,96.39
890.00,96.41
889.00,96.44
888.00,96.46
887.00,96.48
886.00,96.49
885.00,96.50
884.00,96.52
883.00,96.54
882.00,96.56
881.00,96.58
880.00,96.60
879.00,96.60
878.00,96.60
877.00,96.60
876.00,96.61
875.00,96.62
874.00,96.64
873.00,96.65
872.00,96.66
871.00,96.66
870.00,96.66
869.00,96.66
868.00,96.66
867.00,96.66
866.00,96.66
865.00,96.66
864.00,96.66
863.00,96.67
862.00,96.67
861.00,96.65
860.00,96.61
859.00,96.55
858.00,96.50
857.00,96.44
856.00,96.39
855.00,96.33
854.00,96.26
853.00,96.19
852.00,96.11
851.00,96.03
850.00,95.96
849.00,95.90
848.00,95.85
847.00,95.81
846.00,95.79
845.00,95.78
844.00,95.79
843.00,95.83
842.00,95.88
841.00,95.94
840.00,96.01
839.00,96.10
838.00,96.19
837.00,96.29
836.00,96.38
835.00,96.47
834.00,96.55
833.00,96.60
832.00,96.65
831.00,96.67
830.00,96.69
829.00,96.71
828.00,96.73
827.00,96.74
826.00,96.76
825.00,96.76
824.00,96.75
823.00,96.73
822.00,96.71
821.00,96.70
820.00,96.70
819.00,96.71
818.00,96.72
817.00,96.73
816.00,96.73
815.00,96.73
814.00,96.73
813.00,96.73
812.00,96.73
811.00,96.71
810.00,96.69
809.00,96.67
808.00,96.66
807.00,96.66
806.00,96.65
805.00,96.64
804.00,96.63
803.00,96.62
802.00,96.59
801.00,96.55
800.00,96.50
799.00,96.45
798.00,96.40
797.00,96.35
796.00,96.31
795.00,96.26
794.00,96.21
793.00,96.15
792.00,96.07
791.00,95.98
790.00,95.87
789.00,95.75
788.00,95.61
787.00,95.44
786.00,95.24
785.00,95.02
784.00,94.77
783.00,94.49
782.00,94.17
781.00,93.84
780.00,93.48
779.00,93.08
778.00,92.65
777.00,92.18
776.00,91.67
775.00,91.12
774.00,90.53
773.00,89.88
772.00,89.17
771.00,88.41
770.00,87.59
769.00,86.72
768.00,85.82
767.00,84.90
766.00,83.98
765.00,83.07
764.00,82.20
763.00,81.41
762.00,80.74
761.00,80.21
760.00,79.85
759.00,79.67
758.00,79.71
757.00,79.94
756.00,80.35
755.00,80.93
754.00,81.63
753.00,82.41
752.00,83.23
751.00,84.05
750.00,84.86
749.00,85.63
748.00,86.35
747.00,87.02
746.00,87.63
745.00,88.18
744.00,88.67
743.00,89.12
742.00,89.54
741.00,89.95
740.00,90.35
739.00,90.76
738.00,91.19
737.00,91.65
736.00,92.12
735.00,92.61
734.00,93.08
733.00,93.52
732.00,93.93
731.00,94.29
730.00,94.61
729.00,94.89
728.00,95.14
727.00,95.35
726.00,95.52
725.00,95.66
724.00,95.76
723.00,95.84
722.00,95.88
721.00,95.86
720.00,95.77
719.00,95.61
718.00,95.33
717.00,94.90
716.00,94.28
715.00,93.41
714.00,92.26
713.00,90.83
712.00,89.12
711.00,87.19
710.00,85.06
709.00,82.80
708.00,80.43
707.00,78.00
706.00,75.56
705.00,73.14
704.00,70.78
703.00,68.50
702.00,66.37
701.00,64.46
700.00,62.92
699.00,61.97
698.00,61.83
697.00,62.65
696.00,64.44
695.00,67.04
694.00,70.13
693.00,73.30
692.00,76.24
691.00,78.76
690.00,80.84
689.00,82.52
688.00,83.87
687.00,84.95
686.00,85.82
685.00,86.52
684.00,87.08
683.00,87.56
682.00,87.96
681.00,88.30
680.00,88.61
679.00,88.88
678.00,89.13
677.00,89.34
676.00,89.52
675.00,89.69
674.00,89.84
673.00,89.97
672.00,90.07
671.00,90.14
670.00,90.23
669.00,90.38
668.00,90.59
667.00,90.76
666.00,90.89
665.00,91.01
664.00,91.14
663.00,91.27
662.00,91.39
661.00,91.50
660.00,91.60
659.00,91.70
658.00,91.79
657.00,91.89
656.00,91.97
655.00,92.05
654.00,92.12
653.00,92.18
652.00,92.22
651.00,92.23
650.00,92.24
